time,pressure,volume
0,16.955168548,140.871151
0.001,16.989558434,140.87115157
0.002,16.995519442,140.87115214
0.003,16.998734789,140.87115271
0.004,16.998751559,140.87115328
0.005,16.997120957,140.87115385
0.006,16.994407638,140.87115441
0.007,16.991114963,140.87115498
0.008,16.987932147,140.87115555
0.009,16.985510019,140.87115612
0.01,16.984306009,140.87115669
0.011,16.984495934,140.87115726
0.012,16.985963782,140.87115782
0.013,16.988368933,140.87115839
0.014,16.991270213,140.87115896
0.015,16.994222295,140.87115953
0.016,16.996867107,140.8711601
0.017,16.998997678,140.87116066
0.018,17.000604733,140.87116123
0.019,17.001832396,140.8711618
0.02,17.002897598,140.87116237
0.021,17.004014566,140.87116294
0.022,17.005341178,140.87116351
0.023,17.006960011,140.87116408
0.024,17.008889768,140.87116465
0.025,17.011112764,140.87116522
0.026,17.013604414,140.87116579
0.027,17.016354949,140.87116636
0.028,17.019379794,140.87116693
0.029,17.022718619,140.8711675
0.03,17.026434255,140.87116807
0.031,17.03060441,140.87116864
0.032,17.035317858,140.87116921
0.033,17.040672256,140.87116978
0.034,17.04676982,140.87117035
0.035,17.053715758,140.87117092
0.036,17.061622361,140.87117149
0.037,17.070610271,140.87117206
0.038,17.080808705,140.87117263
0.039,17.09235499,140.87117321
0.04,17.105394312,140.87117378
0.041,17.120078035,140.87117435
0.042,17.136564898,140.87117492
0.043,17.155019675,140.87117549
0.044,17.175613477,140.87117606
0.045,17.198522884,140.87117662
0.046,17.223928988,140.87117719
0.047,17.252017546,140.87117776
0.048,17.282981384,140.87117833
0.049,17.317019628,140.87117889
0.05,17.35433571,140.87117946
0.051,17.395138404,140.87118002
0.052,17.439641424,140.87118058
0.053,17.488061441,140.87118115
0.054,17.540623238,140.87118171
0.055,17.597559832,140.87118227
0.056,17.659112982,140.87118282
0.057,17.72553329,140.87118338
0.058,17.797077609,140.87118393
0.059,17.874010283,140.87118448
0.06,17.956602701,140.87118503
0.061,18.045133899,140.87118558
0.062,18.139894649,140.87118612
0.063,18.241185752,140.87118666
0.064,18.349325142,140.8711872
0.065,18.464639384,140.87118774
0.066,18.587470311,140.87118827
0.067,18.718176589,140.8711888
0.068,18.857127382,140.87118932
0.069,19.004703454,140.87118984
0.07,19.161295679,140.87119036
0.071,19.327300909,140.87119087
0.072,19.503132441,140.87119137
0.073,19.689214235,140.87119187
0.074,19.885972878,140.87119237
0.075,20.093846768,140.87119286
0.076,20.313274153,140.87119334
0.077,20.544700726,140.87119382
0.078,20.788567113,140.87119429
0.079,21.04532422,140.87119475
0.08,21.315445541,140.87119521
0.081,21.599420684,140.87119566
0.082,21.897752679,140.8711961
0.083,22.210954971,140.87119653
0.084,22.539545269,140.87119695
0.085,22.884049323,140.87119736
0.086,23.245002834,140.87119776
0.087,23.622946984,140.87119815
0.088,24.018421911,140.87119854
0.089,24.431959707,140.87119891
0.09,24.864103598,140.87119926
0.091,25.315424677,140.87119961
0.092,25.786498312,140.87119994
0.093,26.277905515,140.87120026
0.094,26.790223436,140.87120056
0.095,27.324015947,140.87120085
0.096,27.879867623,140.87120113
0.097,28.458387384,140.87120139
0.098,29.060180489,140.87120163
0.099,29.685862493,140.87120186
0.1,30.336030052,140.87120206
0.101,31.011296424,140.87120225
0.102,31.712251858,140.87120242
0.103,32.439479624,140.87120257
0.104,33.193553457,140.8712027
0.105,33.975060882,140.87120281
0.106,34.784573656,140.8712029
0.107,35.62259323,140.87120296
0.108,36.489651496,140.871203
0.109,37.386294252,140.87120302
0.11,38.313019587,140.87120301
0.111,39.270296648,140.87120297
0.112,40.258615961,140.87120291
0.113,41.278415727,140.87120282
0.114,42.330118373,140.8712027
0.115,43.414138716,140.87120255
0.116,44.530849847,140.87120238
0.117,45.680610515,140.87120217
0.118,46.863756898,140.87120193
0.119,48.08058356,140.87120165
0.12,49.33136847,140.87120135
0.121,50.616362305,140.871201
0.122,51.935757625,140.87120063
0.123,53.289734711,140.87120021
0.124,54.678442743,140.87119976
0.125,56.102008017,140.87119927
0.126,57.560520989,140.87119874
0.127,59.054023693,140.87119817
0.128,60.58252996,140.87119756
0.129,62.146025474,140.87119691
0.13,63.744459159,140.87119621
0.131,65.377708742,140.87119547
0.132,66.89785554,140.85504845
0.133,67.850967884,140.7262001
0.134,68.595890189,140.50230505
0.135,69.171405756,140.21758999
0.136,69.644100556,139.89391532
0.137,70.058242286,139.5442969
0.138,70.44087329,139.17636483
0.139,70.80873889,138.79446382
0.14,71.171963326,138.40096645
0.141,71.536370234,137.99710953
0.142,71.904865891,137.58353194
0.143,72.278423786,137.16062163
0.144,72.65688148,136.72871104
0.145,73.039529795,136.28817379
0.146,73.425640864,135.8394372
0.147,73.814667026,135.38295765
0.148,74.206291961,134.91918782
0.149,74.600358658,134.44855443
0.15,74.996758737,133.97145061
0.151,75.395338139,133.48824329
0.152,75.795890554,132.99928392
0.153,76.198204905,132.50491138
0.154,76.602056373,132.00545554
0.155,77.007276081,131.5012331
0.156,77.413645158,130.99255153
0.157,77.820966722,130.47971101
0.158,78.229085713,129.96299926
0.159,78.637813979,129.44269466
0.16,79.046986596,128.91906752
0.161,79.456427432,128.39238049
0.162,79.866060918,127.86288015
0.163,80.275723802,127.33080256
0.164,80.685256839,126.79638017
0.165,81.094544732,126.25983545
0.166,81.503409796,125.72138641
0.167,81.911702908,125.18124836
0.168,82.319269441,124.63963279
0.169,82.725982148,124.0967451
0.17,83.131754854,123.5527797
0.171,83.536421128,123.00792963
0.172,83.939906721,122.46237935
0.173,84.342144222,121.91630051
0.174,84.742940348,121.3698687
0.175,85.142208338,120.82325452
0.176,85.539824214,120.27662496
0.177,85.935712946,119.73013945
0.178,86.329810952,119.18394906
0.179,86.721958945,118.63820722
0.18,87.112246954,118.09304492
0.181,87.500503997,117.54859275
0.182,87.886619236,117.00498533
0.183,88.270517391,116.46235229
0.184,88.652148619,115.92081771
0.185,89.031400992,115.38050347
0.186,89.408213085,114.84152924
0.187,89.782562598,114.30400515
0.188,90.154390052,113.76803638
0.189,90.523639828,113.23372316
0.19,90.890229506,112.70116612
0.191,91.254107431,112.1704634
0.192,91.615235603,111.64170645
0.193,91.973522911,111.1149882
0.194,92.328938436,110.59039724
0.195,92.681363298,110.06802592
0.196,93.030817278,109.54795868
0.197,93.377243123,109.03027561
0.198,93.720599787,108.51505432
0.199,94.060871751,108.00236771
0.2,94.398013005,107.49228552
0.201,94.731961951,106.9848777
0.202,95.062698951,106.48021201
0.203,95.390197098,105.9783513
0.204,95.714431681,105.47935553
0.205,96.035368935,104.98328277
0.206,96.352979876,104.49018912
0.207,96.667238773,104.00012843
0.208,96.978120404,103.51315243
0.209,97.285603666,103.02931054
0.21,97.589670649,102.54864972
0.211,97.890307955,102.07121413
0.212,98.187502635,101.5970453
0.213,98.481241657,101.12618237
0.214,98.771511875,100.65866246
0.215,99.05830138,100.19452068
0.216,99.34159928,99.733790347
0.217,99.621399479,99.276502543
0.218,99.897697958,98.822686071
0.219,100.17049133,98.37236755
0.22,100.43977658,97.925571653
0.221,100.70555418,97.482320921
0.222,100.96782364,97.042635979
0.223,101.22658559,96.606535715
0.224,101.48184182,96.174037278
0.225,101.7335949,95.7451562
0.226,101.98185066,95.319906179
0.227,102.22661353,94.898299343
0.228,102.46789066,94.480346213
0.229,102.70568987,94.066055687
0.23,102.94001711,93.655435392
0.231,103.17087743,93.248492012
0.232,103.39827968,92.845231047
0.233,103.62223483,92.445656559
0.234,103.8427555,92.049771127
0.235,104.05985209,91.657576149
0.236,104.27353711,91.269071931
0.237,104.48382584,90.884257328
0.238,104.69073177,90.503130078
0.239,104.89426376,90.125687372
0.24,105.0944334,89.751925951
0.241,105.29125705,89.38184141
0.242,105.48474977,89.015428377
0.243,105.67492824,88.652680505
0.244,105.86180466,88.293590886
0.245,106.04538913,87.938152626
0.246,106.22569564,87.586358391
0.247,106.40273629,87.23820057
0.248,106.57652755,86.893670945
0.249,106.74708719,86.552760403
0.25,106.91442579,86.215459747
0.251,107.07855756,85.881759683
0.252,107.23949579,85.551650629
0.253,107.39725933,85.225122372
0.254,107.55186364,84.902164153
0.255,107.70332285,84.582765043
0.256,107.85164651,84.266914459
0.257,107.99684126,83.954602513
0.258,108.13891856,83.645819722
0.259,108.2778869,83.340556696
0.26,108.413743,83.03880585
0.261,108.54649243,82.740560493
0.262,108.67613981,82.445814492
0.263,108.8026976,82.154561689
0.264,108.92618483,81.866794628
0.265,109.04660989,81.582505813
0.266,109.16397569,81.301688439
0.267,109.27827687,81.02433755
0.268,109.38951871,80.750448848
0.269,109.4977052,80.480018416
0.27,109.60283585,80.213043203
0.271,109.70491057,79.949521047
0.272,109.80393836,79.689449647
0.273,109.8999145,79.432827535
0.274,109.99283887,79.179654186
0.275,110.08270957,78.929929767
0.276,110.16952365,78.683655251
0.277,110.2532751,78.440832781
0.278,110.33396595,78.201464693
0.279,110.41158856,77.965554206
0.28,110.48612754,77.733106426
0.281,110.55756878,77.504128408
0.282,110.62589587,77.278628994
0.283,110.69110982,77.056616852
0.284,110.75318906,76.838102273
0.285,110.81210727,76.623098332
0.286,110.8678583,76.411618658
0.287,110.92042054,76.203678025
0.288,110.96978602,75.999291887
0.289,111.01595393,75.798474385
0.29,111.05888794,75.601242351
0.291,111.09853879,75.4076173
0.292,111.13487508,75.217623842
0.293,111.16785979,75.03128884
0.294,111.19749121,74.848638198
0.295,111.22373857,74.66969834
0.296,111.24656982,74.494497476
0.297,111.26591243,74.323069228
0.298,111.28171984,74.155451994
0.299,111.29397422,73.991682532
0.3,111.30265334,73.831797285
0.301,111.3077028,73.675835392
0.302,111.30907651,73.523838376
0.303,111.30671342,73.37585133
0.304,111.30057195,73.231921161
0.305,111.2905687,73.092098943
0.306,111.27663306,72.956441582
0.307,111.25870949,72.825007005
0.308,111.23673189,72.697856406
0.309,111.21065292,72.575050972
0.31,111.18038574,72.456656053
0.311,111.14586522,72.342739751
0.312,111.10700794,72.233373478
0.313,111.06373396,72.128631987
0.314,111.01595387,72.028593518
0.315,110.96354043,71.933344042
0.316,110.90637578,71.842976334
0.317,110.84434816,71.757588526
0.318,110.77736069,71.677281769
0.319,110.70530719,71.602159989
0.32,110.62807388,71.532331112
0.321,110.54554587,71.4679069
0.322,110.45760232,71.409002987
0.323,110.36410069,71.355740103
0.324,110.26484448,71.308250893
0.325,110.15968342,71.266675013
0.326,110.04847869,71.23115507
0.327,109.93106295,71.201837932
0.328,109.80725907,71.178875883
0.329,109.67685455,71.162424106
0.33,109.53955841,71.152633288
0.331,109.39430879,71.14955254
0.332,109.18156546,71.149551242
0.333,108.91496681,71.149549949
0.334,108.60015051,71.149548664
0.335,108.24164203,71.149547387
0.336,107.84418423,71.149546119
0.337,107.41172861,71.149544861
0.338,106.94786629,71.149543614
0.339,106.45610665,71.149542379
0.34,105.93990888,71.149541157
0.341,105.40244393,71.149539948
0.342,104.84652296,71.149538752
0.343,104.27452052,71.149537571
0.344,103.68841636,71.149536403
0.345,103.08985163,71.149535251
0.346,102.48028493,71.149534114
0.347,101.86097124,71.149532992
0.348,101.23295781,71.149531886
0.349,100.59712756,71.149530795
0.35,99.954192918,71.149529721
0.351,99.304766321,71.149528662
0.352,98.649258164,71.14952762
0.353,97.98803942,71.149526595
0.354,97.321404901,71.149525586
0.355,96.649563395,71.149524594
0.356,95.972670381,71.149523619
0.357,95.29085605,71.149522661
0.358,94.604221898,71.14952172
0.359,93.912869948,71.149520796
0.36,93.21689379,71.14951989
0.361,92.516368497,71.149519002
0.362,91.811379308,71.149518131
0.363,91.102005366,71.149517278
0.364,90.388355092,71.149516443
0.365,89.670518537,71.149515626
0.366,88.948582309,71.149514827
0.367,88.22264266,71.149514046
0.368,87.492796391,71.149513284
0.369,86.759159694,71.14951254
0.37,86.021935398,71.149511815
0.371,85.281269037,71.149511108
0.372,84.537310927,71.149510421
0.373,83.790194467,71.149509751
0.374,83.040096635,71.149509101
0.375,82.287233609,71.14950847
0.376,81.53183582,71.149507858
0.377,80.774131588,71.149507265
0.378,80.014310117,71.149506691
0.379,79.252532315,71.149506137
0.38,78.489039792,71.149505601
0.381,77.724038039,71.149505086
0.382,76.957725072,71.149504589
0.383,76.190257815,71.149504112
0.384,75.421811263,71.149503654
0.385,74.65259835,71.149503216
0.386,73.882814197,71.149502797
0.387,73.112667972,71.149502397
0.388,72.342349349,71.149502017
0.389,71.572053452,71.149501657
0.39,70.801986471,71.149501316
0.391,70.032316214,71.149500995
0.392,69.263197739,71.149500693
0.393,68.494788265,71.14950041
0.394,67.727300847,71.149500147
0.395,66.960896113,71.149499903
0.396,66.195693655,71.149499679
0.397,65.43180137,71.149499474
0.398,64.669447872,71.149499288
0.399,63.908756794,71.149499121
0.4,63.149864942,71.149498974
0.401,62.392860453,71.149498846
0.402,61.637931417,71.149498737
0.403,60.885212085,71.149498646
0.404,60.134873697,71.149498575
0.405,59.387063997,71.149498523
0.406,58.64186502,71.14949849
0.407,57.899386613,71.149498475
0.408,57.159771299,71.149498479
0.409,56.423086238,71.149498502
0.41,55.689469624,71.149498544
0.411,54.959042681,71.149498603
0.412,54.231976664,71.149498681
0.413,53.508307322,71.149498778
0.414,52.788190671,71.149498893
0.415,52.071803252,71.149499025
0.416,51.3592232,71.149499176
0.417,50.650542149,71.149499345
0.418,49.945865215,71.149499531
0.419,49.245269031,71.149499735
0.42,48.548741647,71.149499957
0.421,47.856505329,71.149500196
0.422,47.168611899,71.149500452
0.423,46.485130464,71.149500726
0.424,45.806199014,71.149501017
0.425,45.131920563,71.149501324
0.426,44.462381127,71.149501649
0.427,43.797664301,71.14950199
0.428,43.137854796,71.149502348
0.429,42.483063752,71.149502723
0.43,41.833283633,71.149503113
0.431,41.188660721,71.14950352
0.432,40.549276696,71.149503943
0.433,39.915187382,71.149504382
0.434,39.286443983,71.149504837
0.435,38.663058912,71.149505307
0.436,38.045091506,71.149505793
0.437,37.432619226,71.149506294
0.438,36.825689618,71.149506811
0.439,36.224375149,71.149507342
0.44,35.628709977,71.149507889
0.441,35.038720356,71.14950845
0.442,34.45445238,71.149509026
0.443,33.875960702,71.149509616
0.444,33.303294505,71.14951022
0.445,32.736511649,71.149510839
0.446,32.175661753,71.149511472
0.447,31.620786276,71.149512118
0.448,31.071946274,71.149512778
0.449,30.529165069,71.149513452
0.45,29.992481093,71.149514139
0.451,29.461927655,71.149514839
0.452,28.937544924,71.149515552
0.453,28.419352618,71.149516278
0.454,27.907378627,71.149517017
0.455,27.401670765,71.149517769
0.456,26.90229218,71.149518532
0.457,26.409233725,71.149519308
0.458,25.922547991,71.149520096
0.459,25.442269579,71.149520896
0.46,24.968386311,71.149521707
0.461,24.500894982,71.14952253
0.462,24.039834177,71.149523364
0.463,23.585207711,71.14952421
0.464,23.137024438,71.149525066
0.465,22.695284572,71.149525933
0.466,22.259995949,71.149526811
0.467,21.831137912,71.1495277
0.468,21.408679112,71.149528599
0.469,20.992580932,71.149529507
0.47,20.582830883,71.149530426
0.471,20.179372762,71.149531355
0.472,19.782229143,71.149532293
0.473,19.39136014,71.149533241
0.474,19.006730888,71.149534198
0.475,18.628318123,71.149535165
0.476,18.256110012,71.14953614
0.477,17.89007134,71.149537124
0.478,17.530150163,71.149538117
0.479,17.176301712,71.149539118
0.48,16.828526216,71.149540128
0.481,16.486770659,71.149541146
0.482,16.15099147,71.149542172
0.483,15.821116393,71.149543205
0.484,15.497098565,71.149544247
0.485,15.178909064,71.149545296
0.486,14.866535109,71.149546352
0.487,14.559936147,71.149547415
0.488,14.259039157,71.149548486
0.489,13.963786585,71.149549564
0.49,13.674139851,71.149550648
0.491,13.446018771,71.154641585
0.492,13.284892257,71.181329831
0.493,13.126689978,71.229896319
0.494,12.978356939,71.298751764
0.495,12.837607941,71.386472487
0.496,12.702068391,71.492014938
0.497,12.571413438,71.614454675
0.498,12.445977391,71.75284677
0.499,12.325920069,71.906231928
0.5,12.211065871,72.073676776
0.501,12.100922243,72.254319639
0.502,11.994972691,72.447381916
0.503,11.89266242,72.652168987
0.504,11.79346007,72.86807042
0.505,11.696914457,73.094547174
0.506,11.602634727,73.331123937
0.507,11.510349981,73.577373291
0.508,11.419828712,73.832905287
0.509,11.33098412,74.09735555
0.51,11.243810692,74.370366357
0.511,11.158224146,74.651595847
0.512,11.074299199,74.940702705
0.513,10.992070301,75.237345043
0.514,10.911503927,75.541188809
0.515,10.832626065,75.851904379
0.516,10.755472406,76.169164325
0.517,10.680089608,76.492640009
0.518,10.606498697,76.822002855
0.519,10.534637353,77.156938456
0.52,10.464588815,77.497129054
0.521,10.39644375,77.842253976
0.522,10.330417846,78.19196883
0.523,10.266520929,78.545928813
0.524,10.204845398,78.90378479
0.525,10.145435829,79.265186055
0.526,10.08834982,79.629780915
0.527,10.033630391,79.99721596
0.528,9.9812883338,80.367142661
0.529,9.9313885107,80.739210518
0.53,9.8839527495,81.113069803
0.531,9.8389860339,81.488376246
0.532,9.7964519491,81.864793601
0.533,9.7562566364,82.242002
0.534,9.7183123537,82.619699116
0.535,9.682541273,82.997597672
0.536,9.6488725168,83.375425005
0.537,9.6172075534,83.7529246
0.538,9.5874629065,84.129856073
0.539,9.5595670293,84.505992638
0.54,9.5334602403,84.881119552
0.541,9.5090989602,85.255031746
0.542,9.4864466587,85.627532407
0.543,9.4654667079,85.998432662
0.544,9.4461202719,86.367551687
0.545,9.4283664788,86.73471686
0.546,9.4121622957,87.09976389
0.547,9.3974626414,87.462536966
0.548,9.3842207077,87.82288884
0.549,9.3723882031,88.180680898
0.55,9.36191552,88.535783189
0.551,9.3527528436,88.888074357
0.552,9.3448510583,89.237441416
0.553,9.3381609805,89.583779596
0.554,9.3326338676,89.926992168
0.555,9.3282214626,90.266990241
0.556,9.3248760987,90.603692562
0.557,9.3225506737,90.937025306
0.558,9.3211984309,91.266921898
0.559,9.320772834,91.593322865
0.56,9.3212275232,91.916175689
0.561,9.3225162038,92.235434681
0.562,9.3245927581,92.551060852
0.563,9.3274116934,92.863021732
0.564,9.3309284704,93.17129115
0.565,9.3350996378,93.475848987
0.566,9.3398829086,93.776680923
0.567,9.3452372429,94.073778182
0.568,9.3511229034,94.367137267
0.569,9.3575014843,94.656759701
0.57,9.3643359652,94.942651761
0.571,9.3715907672,95.22482421
0.572,9.3792318546,95.503292028
0.573,9.3872268472,95.77807412
0.574,9.3955451014,96.049193033
0.575,9.4041578095,96.316674647
0.576,9.4130380399,96.580547884
0.577,9.422160718,96.8408444
0.578,9.4315025915,97.097598306
0.579,9.4410421769,97.35084589
0.58,9.4507596767,97.600625355
0.581,9.4606368658,97.846976573
0.582,9.470656972,98.089940868
0.583,9.4808045686,98.329560807
0.584,9.4910654755,98.565880012
0.585,9.5014266574,98.79894299
0.586,9.5118761228,99.028794977
0.587,9.5224028297,99.255481799
0.588,9.532996606,99.479049746
0.589,9.5436480813,99.699545455
0.59,9.5543486272,99.917015807
0.591,9.5650903013,100.13150783
0.592,9.5758657925,100.34306862
0.593,9.5866683693,100.55174525
0.594,9.5974918308,100.75758471
0.595,9.6083304634,100.96063384
0.596,9.6191790031,101.16093928
0.597,9.6300326047,101.3585474
0.598,9.6408868161,101.55350427
0.599,9.6517375574,101.74585563
0.6,9.662581103,101.93564681
0.601,9.6734140647,102.12292274
0.602,9.6842333753,102.30772786
0.603,9.6950362723,102.49010614
0.604,9.7058202812,102.67010105
0.605,9.7165831982,102.84775547
0.606,9.7273230741,103.02311175
0.607,9.7380381964,103.19621163
0.608,9.7487270736,103.36709627
0.609,9.759388418,103.53580618
0.61,9.77002113,103.70238125
0.611,9.7806242817,103.86686071
0.612,9.791197101,104.02928316
0.613,9.8017389564,104.18968652
0.614,9.812249342,104.34810804
0.615,9.8227278633,104.50458433
0.616,9.8331742239,104.6591513
0.617,9.8435882133,104.81184422
0.618,9.8539696959,104.96269768
0.619,9.8643186013,105.11174561
0.62,9.874634916,105.25902129
0.621,9.884918676,105.40455736
0.622,9.8951699609,105.54838581
0.623,9.9053888887,105.69053798
0.624,9.9155756116,105.83104461
0.625,9.925730312,105.9699358
0.626,9.9358531997,106.10724105
0.627,9.9459445082,106.24298926
0.628,9.9560044922,106.37720872
0.629,9.9660334246,106.50992716
0.63,9.9760315939,106.64117173
