time,pressure,volume
0,16.078883646,140.871151
0.001,16.101277798,140.87115173
0.002,16.105350572,140.87115247
0.003,16.108039205,140.8711532
0.004,16.108640791,140.87115393
0.005,16.108107917,140.87115467
0.006,16.10683846,140.8711554
0.007,16.105119937,140.87115613
0.008,16.103365346,140.87115686
0.009,16.101977606,140.87115759
0.01,16.101246419,140.87115832
0.011,16.101295566,140.87115906
0.012,16.102081333,140.87115979
0.013,16.103428033,140.87116052
0.014,16.105096646,140.87116124
0.015,16.10684193,140.87116197
0.016,16.108459884,140.8711627
0.017,16.109822995,140.87116343
0.018,16.110904776,140.87116416
0.019,16.111767162,140.87116488
0.02,16.112521201,140.87116561
0.021,16.113285577,140.87116633
0.022,16.114154652,140.87116706
0.023,16.115184438,140.87116778
0.024,16.116395107,140.87116851
0.025,16.117784171,140.87116923
0.026,16.119342442,140.87116995
0.027,16.121066924,140.87117067
0.028,16.122967857,140.87117139
0.029,16.12507034,140.87117211
0.03,16.127414351,140.87117283
0.031,16.130051044,140.87117355
0.032,16.133038986,140.87117427
0.033,16.136442133,140.87117499
0.034,16.140328117,140.8711757
0.035,16.144768443,140.87117642
0.036,16.149838727,140.87117713
0.037,16.155619615,140.87117784
0.038,16.162197449,140.87117856
0.039,16.169664949,140.87117927
0.04,16.178120806,140.87117998
0.041,16.187668944,140.87118068
0.042,16.198418169,140.87118139
0.043,16.210481999,140.8711821
0.044,16.223978345,140.8711828
0.045,16.239029055,140.87118351
0.046,16.255759722,140.87118421
0.047,16.274299838,140.87118491
0.048,16.294782616,140.87118561
0.049,16.317346271,140.87118631
0.05,16.342132717,140.871187
0.051,16.369286675,140.8711877
0.052,16.398956223,140.87118839
0.053,16.431292882,140.87118908
0.054,16.466451302,140.87118977
0.055,16.504590911,140.87119046
0.056,16.545876676,140.87119114
0.057,16.590477999,140.87119182
0.058,16.638569226,140.8711925
0.059,16.690328333,140.87119318
0.06,16.745936471,140.87119385
0.061,16.805579451,140.87119453
0.062,16.86944875,140.87119519
0.063,16.937742202,140.87119586
0.064,17.010664888,140.87119652
0.065,17.088428225,140.87119718
0.066,17.171250747,140.87119784
0.067,17.259357128,140.87119849
0.068,17.352979531,140.87119914
0.069,17.452358651,140.87119979
0.07,17.557738113,140.87120043
0.071,17.669367474,140.87120107
0.072,17.787501633,140.8712017
0.073,17.912399537,140.87120233
0.074,18.044325582,140.87120295
0.075,18.18354982,140.87120357
0.076,18.330341098,140.87120418
0.077,18.484967457,140.87120479
0.078,18.647699756,140.87120539
0.079,18.818807324,140.87120599
0.08,18.998557204,140.87120658
0.081,19.187216824,140.87120716
0.082,19.385066248,140.87120774
0.083,19.592386942,140.87120831
0.084,19.809460921,140.87120888
0.085,20.03657078,140.87120943
0.086,20.273999892,140.87120998
0.087,20.522030564,140.87121052
0.088,20.780942207,140.87121105
0.089,21.051015706,140.87121158
0.09,21.332527911,140.87121209
0.091,21.625746146,140.8712126
0.092,21.930932146,140.8712131
0.093,22.248354962,140.87121359
0.094,22.578283807,140.87121406
0.095,22.920985777,140.87121453
0.096,23.27671305,140.87121499
0.097,23.64571359,140.87121543
0.098,24.02824737,140.87121587
0.099,24.424578464,140.87121629
0.1,24.834961765,140.8712167
0.101,25.25965639,140.8712171
0.102,25.698916712,140.87121748
0.103,26.152980098,140.87121785
0.104,26.622075994,140.87121821
0.105,27.106428941,140.87121855
0.106,27.606265792,140.87121888
0.107,28.121783444,140.87121919
0.108,28.65317454,140.87121949
0.109,29.200620539,140.87121978
0.11,29.764303187,140.87122004
0.111,30.344392477,140.87122029
0.112,30.941045445,140.87122052
0.113,31.55440631,140.87122074
0.114,32.184598761,140.87122094
0.115,32.831748953,140.87122112
0.116,33.495958902,140.87122128
0.117,34.177325497,140.87122142
0.118,34.875929643,140.87122154
0.119,35.591842262,140.87122164
0.12,36.325112524,140.87122172
0.121,37.075771676,140.87122178
0.122,37.843842406,140.87122182
0.123,38.629326319,140.87122183
0.124,39.432205096,140.87122182
0.125,40.252460241,140.87122179
0.126,41.090044432,140.87122174
0.127,41.944904268,140.87122166
0.128,42.816970072,140.87122156
0.129,43.706158853,140.87122144
0.13,44.612353169,140.87122129
0.131,45.535433992,140.87122111
0.132,46.47523597,140.87122091
0.133,47.431557425,140.87122068
0.134,48.404174732,140.87122042
0.135,49.392827204,140.87122014
0.136,50.397208623,140.87121983
0.137,51.416960563,140.87121949
0.138,52.451692193,140.87121912
0.139,53.500958779,140.87121873
0.14,54.56425814,140.8712183
0.141,55.641059109,140.87121785
0.142,56.730760566,140.87121736
0.143,57.832647487,140.87121685
0.144,58.945951748,140.8712163
0.145,60.069793177,140.87121573
0.146,61.203195367,140.87121512
0.147,62.187648794,140.85353518
0.148,62.819346641,140.75159692
0.149,63.30788043,140.58422379
0.15,63.683870244,140.37451064
0.151,63.990487887,140.13727287
0.152,64.255138439,139.88169418
0.153,64.495561704,139.61340891
0.154,64.723884415,139.33570732
0.155,64.948028552,139.05036931
0.156,65.172692023,138.7582759
0.157,65.400206785,138.45983937
0.158,65.631347301,138.15527983
0.159,65.865911752,137.84479117
0.16,66.103292825,137.52861243
0.161,66.342843204,137.20703912
0.162,66.584072911,136.88040127
0.163,66.826689749,136.54903469
0.164,67.070554739,136.21325888
0.165,67.315596607,135.87336615
0.166,67.561744238,135.52962529
0.167,67.80893931,135.1822805
0.168,68.057047395,134.83156286
0.169,68.305921978,134.47769545
0.17,68.555427076,134.12089322
0.171,68.80540032,133.76136629
0.172,69.055742957,133.39931538
0.173,69.30633932,133.03493241
0.174,69.55707541,132.66840167
0.175,69.807852373,132.29989898
0.176,70.05857869,131.92959249
0.177,70.309133571,131.55764482
0.178,70.559405454,131.18421543
0.179,70.809296055,130.80945849
0.18,71.058737612,130.43351953
0.181,71.307623641,130.05654014
0.182,71.555902546,129.67865484
0.183,71.803441443,129.29999576
0.184,72.050178548,128.92069273
0.185,72.296112252,128.5408601
0.186,72.541109017,128.1606129
0.187,72.785121131,127.78006393
0.188,73.028099966,127.3993174
0.189,73.269991553,127.01847332
0.19,73.510685061,126.63763257
0.191,73.750125164,126.25689417
0.192,73.988256707,125.87635253
0.193,74.225028877,125.49609894
0.194,74.46035835,125.11622378
0.195,74.694237959,124.73681072
0.196,74.926599269,124.35794088
0.197,75.157372605,123.97969578
0.198,75.386518366,123.6021542
0.199,75.614022711,123.22538839
0.2,75.839833501,122.84946806
0.201,76.063868153,122.47446574
0.202,76.286120045,122.10044925
0.203,76.506533764,121.72748397
0.204,76.725088695,121.3556326
0.205,76.941745106,120.98495562
0.206,77.156445587,120.61551326
0.207,77.369165191,120.24736527
0.208,77.579876332,119.88056648
0.209,77.788541165,119.51517218
0.21,77.995137537,119.1512342
0.211,78.199624853,118.7888038
0.212,78.401984659,118.42793042
0.213,78.602195154,118.06866079
0.214,78.800229363,117.71104021
0.215,78.996060385,117.35511287
0.216,79.18966263,117.00092186
0.217,79.381012377,116.64850903
0.218,79.570087543,116.29791498
0.219,79.756867272,115.94917897
0.22,79.9413317,115.60233901
0.221,80.123462876,115.25743177
0.222,80.30324418,114.91449252
0.223,80.480659986,114.5735552
0.224,80.655695322,114.23465244
0.225,80.828335899,113.89781567
0.226,80.99856777,113.56307517
0.227,81.16637782,113.23046016
0.228,81.331754433,112.89999869
0.229,81.494686517,112.57171776
0.23,81.655163681,112.24564326
0.231,81.813176995,111.92180004
0.232,81.968717428,111.6002119
0.233,82.121777158,111.28090169
0.234,82.272348389,110.96389128
0.235,82.420423558,110.64920176
0.236,82.565996566,110.33685329
0.237,82.709061703,110.02686518
0.238,82.849612928,109.71925598
0.239,82.98764488,109.41404355
0.24,83.123153656,109.11124493
0.241,83.256134144,108.81087651
0.242,83.386581517,108.5129542
0.243,83.514492773,108.21749319
0.244,83.639864715,107.92450807
0.245,83.76269602,107.63401269
0.246,83.882985849,107.34602013
0.247,84.000733509,107.06054279
0.248,84.115936154,106.77759263
0.249,84.22858868,106.49718154
0.25,84.338688311,106.21932125
0.251,84.446232388,105.94402318
0.252,84.551220746,105.67129827
0.253,84.653654584,105.40115682
0.254,84.753532625,105.1336087
0.255,84.850850935,104.86866385
0.256,84.945606375,104.60633219
0.257,85.037795354,104.34662371
0.258,85.127412706,104.0895486
0.259,85.214449652,103.83511759
0.26,85.298900029,103.58334193
0.261,85.380759423,103.33423283
0.262,85.4600209,103.08780185
0.263,85.536676779,102.8440609
0.264,85.610722251,102.6030221
0.265,85.682153675,102.36469733
0.266,85.750964597,102.12909867
0.267,85.817149135,101.89623837
0.268,85.880702503,101.66612868
0.269,85.941620433,101.43878181
0.27,85.999895173,101.21421015
0.271,86.055516666,100.9924268
0.272,86.108478852,100.77344497
0.273,86.158776672,100.55727789
0.274,86.20640602,100.34393855
0.275,86.251358586,100.13344023
0.276,86.293624484,99.925796725
0.277,86.333189205,99.721022532
0.278,86.370042191,99.519133164
0.279,86.404174116,99.320144172
0.28,86.435570547,99.124071965
0.281,86.464225897,98.930932873
0.282,86.490132975,98.740742987
0.283,86.513274418,98.553519236
0.284,86.533628591,98.369280251
0.285,86.551181275,98.188045422
0.286,86.565919168,98.009834548
0.287,86.577832792,97.834667278
0.288,86.586902578,97.662564007
0.289,86.593105044,97.493546723
0.29,86.59642225,97.32763825
0.291,86.596832259,97.164862259
0.292,86.594308204,97.005244119
0.293,86.588834698,96.848809445
0.294,86.580392141,96.695584247
0.295,86.568963163,96.545594801
0.296,86.554527682,96.398867738
0.297,86.537062257,96.25543048
0.298,86.516533136,96.115312325
0.299,86.49291714,95.978543614
0.3,86.466184426,95.845155614
0.301,86.436305442,95.715180918
0.302,86.403246808,95.588653595
0.303,86.366976665,95.465608926
0.304,86.327456524,95.346083888
0.305,86.284655855,95.230116641
0.306,86.238540523,95.117746111
0.307,86.189083645,95.009011639
0.308,86.136256067,94.9039527
0.309,86.080017953,94.802610053
0.31,86.020326056,94.705026511
0.311,85.957133492,94.611246891
0.312,85.890389626,94.521318548
0.313,85.820060714,94.435289498
0.314,85.746114102,94.353207504
0.315,85.668515507,94.275120328
0.316,85.587226323,94.201076361
0.317,85.502203485,94.131124852
0.318,85.413400833,94.065316609
0.319,85.320766418,94.003704148
0.32,85.224247474,93.94634199
0.321,85.123777051,93.893287877
0.322,85.01931107,93.844600582
0.323,84.910810644,93.800338353
0.324,84.798235914,93.760558854
0.325,84.681539868,93.725319956
0.326,84.560666093,93.694680518
0.327,84.435559695,93.668700453
0.328,84.306178926,93.647438068
0.329,84.172480055,93.630948065
0.33,84.034380457,93.619280525
0.331,83.891717943,93.612469671
0.332,83.743183817,93.610443802
0.333,83.558490096,93.610442918
0.334,83.346997077,93.610442038
0.335,83.111816187,93.610441163
0.336,82.855642884,93.610440293
0.337,82.580964699,93.610439429
0.338,82.289652916,93.610438572
0.339,81.983313039,93.610437721
0.34,81.663461813,93.610436877
0.341,81.331540052,93.610436041
0.342,80.988891716,93.610435212
0.343,80.636698676,93.610434391
0.344,80.275944456,93.610433579
0.345,79.907439125,93.610432775
0.346,79.531868614,93.610431979
0.347,79.149826671,93.610431192
0.348,78.761822604,93.610430415
0.349,78.368314589,93.610429646
0.35,77.96969439,93.610428887
0.351,77.566289815,93.610428137
0.352,77.158385838,93.610427396
0.353,76.746227242,93.610426665
0.354,76.330003889,93.610425944
0.355,75.909883874,93.610425233
0.356,75.485997609,93.610424532
0.357,75.058448825,93.61042384
0.358,74.627337086,93.610423159
0.359,74.192755371,93.610422488
0.36,73.754775245,93.610421828
0.361,73.313471196,93.610421178
0.362,72.86892494,93.610420538
0.363,72.421215134,93.610419909
0.364,71.970409515,93.610419291
0.365,71.516567677,93.610418683
0.366,71.059768073,93.610418087
0.367,70.60008176,93.610417501
0.368,70.137581341,93.610416926
0.369,69.672346409,93.610416363
0.37,69.204449314,93.61041581
0.371,68.733975273,93.610415269
0.372,68.261017471,93.610414739
0.373,67.78566456,93.610414221
0.374,67.308003291,93.610413714
0.375,66.828118618,93.610413218
0.376,66.34611479,93.610412734
0.377,65.86208991,93.610412262
0.378,65.376135087,93.610411801
0.379,64.888341788,93.610411352
0.38,64.398804162,93.610410915
0.381,63.907628023,93.61041049
0.382,63.414905773,93.610410076
0.383,62.920723127,93.610409675
0.384,62.425184465,93.610409285
0.385,61.9283949,93.610408908
0.386,61.430442178,93.610408542
0.387,60.931421131,93.610408188
0.388,60.431440585,93.610407847
0.389,59.930591999,93.610407518
0.39,59.428975616,93.6104072
0.391,58.926692692,93.610406895
0.392,58.423833425,93.610406602
0.393,57.920494498,93.610406322
0.394,57.416764517,93.610406053
0.395,56.912733692,93.610405797
0.396,56.408490926,93.610405553
0.397,55.904123449,93.610405321
0.398,55.399716843,93.610405101
0.399,54.895363137,93.610404894
0.4,54.391144467,93.610404699
0.401,53.88714755,93.610404516
0.402,53.383456202,93.610404345
0.403,52.880149113,93.610404187
0.404,52.377314274,93.61040404
0.405,51.875032602,93.610403906
0.406,51.373383868,93.610403785
0.407,50.872441016,93.610403675
0.408,50.372277285,93.610403577
0.409,49.872968656,93.610403492
0.41,49.374582777,93.610403418
0.411,48.877196583,93.610403357
0.412,48.380885218,93.610403308
0.413,47.885720088,93.610403271
0.414,47.391765573,93.610403246
0.415,46.899088714,93.610403233
0.416,46.407752996,93.610403231
0.417,45.917815815,93.610403242
0.418,45.429343002,93.610403265
0.419,44.942402986,93.610403299
0.42,44.457057583,93.610403345
0.421,43.973361176,93.610403403
0.422,43.491372643,93.610403473
0.423,43.011153503,93.610403554
0.424,42.532760753,93.610403647
0.425,42.056251252,93.610403751
0.426,41.581680655,93.610403867
0.427,41.109108598,93.610403995
0.428,40.638589792,93.610404133
0.429,40.170173896,93.610404284
0.43,39.703915892,93.610404445
0.431,39.239874668,93.610404618
0.432,38.778103351,93.610404802
0.433,38.318650894,93.610404997
0.434,37.861566153,93.610405203
0.435,37.406894614,93.61040542
0.436,36.954685997,93.610405649
0.437,36.504999124,93.610405888
0.438,36.057877843,93.610406137
0.439,35.613352968,93.610406398
0.44,35.171467581,93.610406669
0.441,34.73227268,93.610406951
0.442,34.29582256,93.610407244
0.443,33.862172602,93.610407547
0.444,33.43137306,93.61040786
0.445,33.003476211,93.610408184
0.446,32.578530903,93.610408518
0.447,32.156602683,93.610408862
0.448,31.737746404,93.610409216
0.449,31.322016237,93.61040958
0.45,30.909469175,93.610409954
0.451,30.500146435,93.610410338
0.452,30.094091234,93.610410732
0.453,29.691351233,93.610411135
0.454,29.291973482,93.610411548
0.455,28.896006102,93.610411971
0.456,28.503488937,93.610412403
0.457,28.114461505,93.610412844
0.458,27.728972537,93.610413295
0.459,27.347054939,93.610413754
0.46,26.96873573,93.610414223
0.461,26.594040691,93.6104147
0.462,26.222997772,93.610415187
0.463,25.855643832,93.610415682
0.464,25.492007846,93.610416186
0.465,25.132112635,93.610416698
0.466,24.775993775,93.610417219
0.467,24.423686335,93.610417749
0.468,24.075200894,93.610418286
0.469,23.730543466,93.610418832
0.47,23.389727005,93.610419386
0.471,23.052774934,93.610419947
0.472,22.719698827,93.610420517
0.473,22.390509773,93.610421094
0.474,22.065207786,93.610421679
0.475,21.743808023,93.610422272
0.476,21.42632095,93.610422872
0.477,21.112743718,93.610423479
0.478,20.803084137,93.610424094
0.479,20.49734481,93.610424716
0.48,20.195521026,93.610425345
0.481,19.897603012,93.610425981
0.482,19.603584994,93.610426623
0.483,19.313473127,93.610427273
0.484,19.027282624,93.610427929
0.485,18.745010584,93.610428591
0.486,18.466639828,93.61042926
0.487,18.255429416,93.618654091
0.488,18.083433639,93.649759139
0.489,17.919122854,93.702746027
0.49,17.763447556,93.775836239
0.491,17.61310201,93.867673597
0.492,17.466275993,93.977245157
0.493,17.322676006,94.10364227
0.494,17.182391794,94.24597537
0.495,17.045325195,94.403384355
0.496,16.91120297,94.575065782
0.497,16.779748811,94.760275814
0.498,16.65065267,94.958331781
0.499,16.523621008,95.168610832
0.5,16.398377927,95.390545186
0.501,16.274668813,95.623618568
0.502,16.152288455,95.867358826
0.503,16.03106951,96.121331593
0.504,15.910892482,96.385133171
0.505,15.791683655,96.658383282
0.506,15.673407752,96.940719557
0.507,15.556080608,97.231790537
0.508,15.439778523,97.531247457
0.509,15.324589834,97.8387408
0.51,15.210614051,98.153919263
0.511,15.097976092,98.476426803
0.512,14.986829251,98.805898937
0.513,14.877327759,99.141961672
0.514,14.769613226,99.484233374
0.515,14.663829541,99.832325057
0.516,14.560115155,100.1858409
0.517,14.458602183,100.54437928
0.518,14.359417808,100.90753361
0.519,14.262684305,101.27489302
0.52,14.168514243,101.64604357
0.521,14.077013193,102.02056934
0.522,13.988277226,102.39805354
0.523,13.902389728,102.77808012
0.524,13.819421191,103.16023533
0.525,13.739426019,103.54410971
0.526,13.662440345,103.9293002
0.527,13.588481538,104.31541243
0.528,13.517548892,104.70206284
0.529,13.4496252,105.0888806
0.53,13.384678728,105.47550917
0.531,13.32266542,105.86160756
0.532,13.263531725,106.24685123
0.533,13.207216644,106.63093262
0.534,13.15365362,107.01356143
0.535,13.102772371,107.39446466
0.536,13.054500605,107.77338638
0.537,13.008765496,108.15008737
0.538,12.965494495,108.52434456
0.539,12.92461616,108.89595045
0.54,12.886061148,109.26471239
0.541,12.849762782,109.63045177
0.542,12.815657175,109.99300323
0.543,12.7836835,110.35221389
0.544,12.753783602,110.70794253
0.545,12.725901791,111.06005897
0.546,12.699984367,111.4084434
0.547,12.675978682,111.75298589
0.548,12.653832301,112.09358607
0.549,12.633492402,112.4301528
0.55,12.614904741,112.7626041
0.551,12.598012872,113.09086708
0.552,12.582757902,113.41487805
0.553,12.569078416,113.73458251
0.554,12.55691095,114.0499352
0.555,12.546190409,114.36090002
0.556,12.536850801,114.66744996
0.557,12.528826171,114.96956679
0.558,12.522051272,115.26724078
0.559,12.51646253,115.56047023
0.56,12.511999015,115.84926093
0.561,12.508603187,116.13362551
0.562,12.506221173,116.41358275
0.563,12.504802792,116.68915693
0.564,12.504301374,116.96037719
0.565,12.504673276,117.22727696
0.566,12.50587757,117.48989347
0.567,12.50787568,117.74826731
0.568,12.510631075,118.00244208
0.569,12.514109061,118.25246402
0.57,12.518276596,118.49838174
0.571,12.523102116,118.74024592
0.572,12.52855536,118.9781091
0.573,12.534607227,119.21202545
0.574,12.541229596,119.44205062
0.575,12.548395179,119.66824157
0.576,12.556077438,119.89065641
0.577,12.564250556,120.10935433
0.578,12.572889418,120.32439544
0.579,12.581969621,120.53584067
0.58,12.591467488,120.74375166
0.581,12.601360082,120.94819064
0.582,12.611625228,121.14922033
0.583,12.622241528,121.34690385
0.584,12.633188389,121.54130456
0.585,12.64444605,121.73248601
0.586,12.655995601,121.92051179
0.587,12.667818988,122.10544545
0.588,12.679899,122.28735038
0.589,12.692219246,122.46628975
0.59,12.704764121,122.64232638
0.591,12.717518764,122.81552268
0.592,12.730469031,122.98594058
0.593,12.743601452,123.15364145
0.594,12.756903208,123.31868606
0.595,12.770362109,123.48113451
0.596,12.783966569,123.64104618
0.597,12.797705597,123.79847969
0.598,12.811568783,123.95349285
0.599,12.825546286,124.10614261
0.6,12.839628826,124.25648505
0.601,12.853807674,124.40457532
0.602,12.868074634,124.5504676
0.603,12.882422032,124.69421509
0.604,12.896842689,124.83586997
0.605,12.911329904,124.97548338
0.606,12.925877419,125.1131054
0.607,12.940479394,125.24878505
0.608,12.955130378,125.38257024
0.609,12.969825273,125.51450781
0.61,12.984559315,125.64464348
0.611,12.999328039,125.77302192
0.612,13.014127262,125.89968667
0.613,13.028953065,126.0246802
0.614,13.043801768,126.14804391
0.615,13.058669926,126.26981814
0.616,13.073554308,126.39004216
0.617,13.088451891,126.50875421
0.618,13.103359847,126.6259915
0.619,13.118275535,126.74179022
0.62,13.133196488,126.85618558
0.621,13.148120405,126.96921178
0.622,13.163045141,127.08090206
0.623,13.177968695,127.19128872
0.624,13.192889204,127.30040312
0.625,13.207804928,127.40827571
0.626,13.222714242,127.51493602
0.627,13.237615632,127.62041274
0.628,13.252507678,127.72473367
0.629,13.267389052,127.82792581
0.63,13.282258509,127.9300153
