time,pressure,volume
0,14.691250805,140.871151
0.001,14.722794803,140.87115177
0.002,14.728719091,140.87115253
0.003,14.732003574,140.8711533
0.004,14.731630149,140.87115406
0.005,14.729833989,140.87115483
0.006,14.727148316,140.87115559
0.007,14.723644682,140.87115635
0.008,14.719674844,140.87115712
0.009,14.715848087,140.87115788
0.01,14.712832268,140.87115864
0.011,14.711158666,140.8711594
0.012,14.71109383,140.87116016
0.013,14.712590683,140.87116092
0.014,14.715333342,140.87116168
0.015,14.718846961,140.87116244
0.016,14.722597604,140.8711632
0.017,14.726097057,140.87116395
0.018,14.728993649,140.87116471
0.019,14.731120875,140.87116546
0.02,14.732541087,140.87116622
0.021,14.733474606,140.87116697
0.022,14.734209962,140.87116772
0.023,14.735025167,140.87116847
0.024,14.736130798,140.87116922
0.025,14.737647136,140.87116997
0.026,14.739611568,140.87117072
0.027,14.742006048,140.87117147
0.028,14.74478986,140.87117221
0.029,14.747926315,140.87117296
0.03,14.751403472,140.8711737
0.031,14.755240329,140.87117445
0.032,14.759482448,140.87117519
0.033,14.76419626,140.87117593
0.034,14.769463971,140.87117667
0.035,14.775375017,140.87117741
0.036,14.782022095,140.87117814
0.037,14.78949816,140.87117888
0.038,14.797895341,140.87117961
0.039,14.807308434,140.87118035
0.04,14.817837765,140.87118108
0.041,14.82958879,140.87118181
0.042,14.842672664,140.87118254
0.043,14.857206518,140.87118326
0.044,14.873312808,140.87118399
0.045,14.891116556,140.87118471
0.046,14.910745415,140.87118544
0.047,14.932330595,140.87118616
0.048,14.956006911,140.87118687
0.049,14.981912328,140.87118759
0.05,15.010186806,140.87118831
0.051,15.040972432,140.87118902
0.052,15.0744149,140.87118973
0.053,15.110665873,140.87119044
0.054,15.149880877,140.87119114
0.055,15.192219153,140.87119184
0.056,15.237843505,140.87119255
0.057,15.286920486,140.87119324
0.058,15.339617801,140.87119394
0.059,15.396107099,140.87119463
0.06,15.456565081,140.87119532
0.061,15.521175605,140.87119601
0.062,15.590130621,140.87119669
0.063,15.66362912,140.87119737
0.064,15.741876041,140.87119805
0.065,15.825083485,140.87119872
0.066,15.913470269,140.87119939
0.067,16.007260262,140.87120006
0.068,16.106683416,140.87120072
0.069,16.211978246,140.87120137
0.07,16.323391525,140.87120203
0.071,16.441179809,140.87120268
0.072,16.565607944,140.87120332
0.073,16.696958461,140.87120396
0.074,16.835527162,140.87120459
0.075,16.981624287,140.87120522
0.076,17.135568981,140.87120584
0.077,17.297685374,140.87120646
0.078,17.468308375,140.87120707
0.079,17.647785589,140.87120768
0.08,17.836478983,140.87120828
0.081,18.034755009,140.87120887
0.082,18.242984851,140.87120946
0.083,18.461555698,140.87121003
0.084,18.690842892,140.87121061
0.085,18.931235526,140.87121117
0.086,19.183127737,140.87121172
0.087,19.446913101,140.87121227
0.088,19.723000096,140.87121281
0.089,20.011810683,140.87121334
0.09,20.313802872,140.87121386
0.091,20.629446133,140.87121437
0.092,20.959200677,140.87121487
0.093,21.303560073,140.87121536
0.094,21.663032706,140.87121584
0.095,22.038120479,140.8712163
0.096,22.429334918,140.87121676
0.097,22.837215329,140.8712172
0.098,23.26229262,140.87121763
0.099,23.705098095,140.87121805
0.1,24.16618276,140.87121846
0.101,24.646108649,140.87121885
0.102,25.145473463,140.87121922
0.103,25.664893629,140.87121958
0.104,26.204975919,140.87121993
0.105,26.766338671,140.87122026
0.106,27.349628952,140.87122057
0.107,27.955462145,140.87122087
0.108,28.584484156,140.87122114
0.109,29.237330647,140.8712214
0.11,29.91467589,140.87122164
0.111,30.617145291,140.87122186
0.112,31.345339453,140.87122206
0.113,32.099939146,140.87122224
0.114,32.881565137,140.8712224
0.115,33.690865322,140.87122253
0.116,34.528447802,140.87122264
0.117,35.394968945,140.87122273
0.118,36.291034868,140.87122279
0.119,37.217240507,140.87122283
0.12,38.174151277,140.87122284
0.121,39.162323612,140.87122282
0.122,40.182303479,140.87122278
0.123,41.23464776,140.8712227
0.124,42.319909283,140.8712226
0.125,43.438586467,140.87122247
0.126,44.591175193,140.8712223
0.127,45.778147582,140.8712221
0.128,46.999944219,140.87122187
0.129,48.257003024,140.87122161
0.13,49.549735703,140.87122131
0.131,50.878514825,140.87122097
0.132,52.243689614,140.8712206
0.133,53.645584111,140.87122018
0.134,55.084498688,140.87121973
0.135,56.560694997,140.87121924
0.136,58.074422964,140.87121871
0.137,59.625886031,140.87121814
0.138,61.215262083,140.87121752
0.139,62.465434314,140.82386538
0.14,63.331516341,140.65461853
0.141,64.004780552,140.40142366
0.142,64.543352818,140.09280932
0.143,64.998496003,139.74704112
0.144,65.403806168,139.37555137
0.145,65.781722976,138.98530865
0.146,66.146751636,138.58041267
0.147,66.507878046,138.16319406
0.148,66.870353622,137.73493978
0.149,67.23697202,137.29636139
0.15,67.608861504,136.84789424
0.151,67.986074421,136.38988654
0.152,68.368113672,135.92269474
0.153,68.754384411,135.44670971
0.154,69.144378825,134.9623444
0.155,69.537783738,134.4700112
0.156,69.934446942,133.9700972
0.157,70.334281725,133.46295673
0.158,70.737135785,132.94891932
0.159,71.142910686,132.42829098
0.16,71.551480923,131.90135477
0.161,71.962617123,131.36838716
0.162,72.376091184,130.82966217
0.163,72.791720308,130.28544558
0.164,73.209289309,129.7359985
0.165,73.628599135,129.18157752
0.166,74.04946211,128.62243389
0.167,74.471635742,128.05881766
0.168,74.894932286,127.49097728
0.169,75.319165339,126.91915439
0.17,75.744114409,126.34359174
0.171,76.169607229,125.76452565
0.172,76.595394855,125.18219586
0.173,77.021332304,124.59683639
0.174,77.447251133,124.00867497
0.175,77.872997374,123.41793348
0.176,78.298379209,122.82483125
0.177,78.723233536,122.22958558
0.178,79.147375352,121.63241096
0.179,79.570662242,121.03351798
0.18,79.992953954,120.43311058
0.181,80.414098443,119.8313898
0.182,80.833982683,119.22854878
0.183,81.25245234,118.62477713
0.184,81.669326559,118.02026656
0.185,82.084465848,117.41520634
0.186,82.497815212,116.80977464
0.187,82.909265066,116.20414031
0.188,83.31867326,115.59847232
0.189,83.72593425,114.99293453
0.19,84.130884727,114.38769175
0.191,84.533364087,113.78291249
0.192,84.933305502,113.17875795
0.193,85.330524166,112.57539069
0.194,85.724947985,111.9729701
0.195,86.116579404,111.37163842
0.196,86.505260499,110.77153746
0.197,86.890831619,110.17281541
0.198,87.273276831,109.57561104
0.199,87.65251872,108.98005459
0.2,88.028419846,108.38627814
0.201,88.400915672,107.79441381
0.202,88.769989195,107.20457899
0.203,89.135534551,106.61688986
0.204,89.497463732,106.03146642
0.205,89.855792869,105.44841137
0.206,90.210448451,104.86782686
0.207,90.561282804,104.28981878
0.208,90.908276102,103.71449188
0.209,91.251447397,103.14193577
0.21,91.590741622,102.57223645
0.211,91.92609226,102.00547942
0.212,92.257424118,101.44175099
0.213,92.584691576,100.88113541
0.214,92.907863847,100.3237129
0.215,93.226873473,99.769563785
0.216,93.541722559,99.218760968
0.217,93.852354032,98.671376638
0.218,94.158767942,98.127478205
0.219,94.460961619,97.587125155
0.22,94.75889703,97.050376099
0.221,95.052521179,96.517290225
0.222,95.341810276,95.987925467
0.223,95.626773297,95.462334319
0.224,95.907402953,94.940564226
0.225,96.183696445,94.422659473
0.226,96.455642796,93.908661174
0.227,96.723222588,93.398609445
0.228,96.986423329,92.892542908
0.229,97.245249727,92.390496891
0.23,97.49970673,91.892503211
0.231,97.749803752,91.398590062
0.232,97.995540123,90.908783453
0.233,98.236919943,90.423107237
0.234,98.473945982,89.941583392
0.235,98.70663026,89.464231381
0.236,98.934991978,88.991067194
0.237,99.159035813,88.522105154
0.238,99.378774872,88.057357885
0.239,99.59422325,87.596835762
0.24,99.805392225,87.140547784
0.241,100.01231587,86.688499522
0.242,100.21502111,86.240692924
0.243,100.41352821,85.797128497
0.244,100.60786858,85.357803918
0.245,100.7980611,84.922715316
0.246,100.98413075,84.491857748
0.247,101.16610492,84.065224206
0.248,101.3440076,83.642806442
0.249,101.517853,83.224596193
0.25,101.68766988,82.810584124
0.251,101.85348858,82.400759113
0.252,102.01533621,81.995108756
0.253,102.17322633,81.593621019
0.254,102.32717184,81.196284738
0.255,102.47720001,80.803088253
0.256,102.6233374,80.414018632
0.257,102.76559901,80.02906332
0.258,102.9040149,79.648209061
0.259,103.0386158,79.271441013
0.26,103.16944232,78.898742558
0.261,103.29651733,78.530095865
0.262,103.41987234,78.165483265
0.263,103.53955133,77.804884312
0.264,103.65556417,77.448279486
0.265,103.76792291,77.095651585
0.266,103.87667155,76.746981672
0.267,103.98183429,76.402249859
0.268,104.08341932,76.061438286
0.269,104.18144604,75.72453013
0.27,104.27593255,75.391509033
0.271,104.3669014,75.062358868
0.272,104.45435625,74.737065243
0.273,104.53833051,74.415613255
0.274,104.61883637,74.097988335
0.275,104.69589713,73.784176252
0.276,104.76954305,73.474161344
0.277,104.83979294,73.167928281
0.278,104.90667743,72.86546077
0.279,104.97020295,72.56674363
0.28,105.03037535,72.271764032
0.281,105.08718028,71.980512449
0.282,105.14062636,71.692981826
0.283,105.19074167,71.409163238
0.284,105.23752427,71.129049471
0.285,105.2809864,70.852633875
0.286,105.32114823,70.579909613
0.287,105.35803214,70.310868236
0.288,105.3916605,70.045501028
0.289,105.42200908,69.783801737
0.29,105.44904135,69.525771595
0.291,105.47276365,69.271413086
0.292,105.49321458,69.020725048
0.293,105.51037049,68.773708435
0.294,105.52422864,68.530366758
0.295,105.53478752,68.290703932
0.296,105.54203598,68.054725839
0.297,105.5459454,67.822441688
0.298,105.54649615,67.593864139
0.299,105.54368143,67.369006399
0.3,105.53751507,67.147880309
0.301,105.52797804,66.930498064
0.302,105.51502416,66.716877908
0.303,105.49868444,66.507035288
0.304,105.47897229,66.30098188
0.305,105.45582559,66.098735129
0.306,105.42923597,65.900314965
0.307,105.39915541,65.70574437
0.308,105.36556037,65.515049243
0.309,105.32840405,65.328258259
0.31,105.28760147,65.14540895
0.311,105.24316865,64.966536357
0.312,105.19503919,64.791678401
0.313,105.14316564,64.620877339
0.314,105.08752595,64.454175068
0.315,105.02807654,64.291614589
0.316,104.96472683,64.133246589
0.317,104.89742102,63.979123945
0.318,104.82606263,63.829307904
0.319,104.75059642,63.683862114
0.32,104.67097414,63.542849837
0.321,104.58714589,63.406336476
0.322,104.49903003,63.2743887
0.323,104.40647279,63.147086707
0.324,104.30942898,63.024512483
0.325,104.20784539,62.906745253
0.326,104.10159151,62.793872172
0.327,103.99058531,62.685984749
0.328,103.87475593,62.583173679
0.329,103.753971,62.485537685
0.33,103.62813407,62.393178005
0.331,103.49710849,62.306203764
0.332,103.36073628,62.224732406
0.333,103.21888024,62.148889354
0.334,103.07143085,62.0788013
0.335,102.91824434,62.014600575
0.336,102.7591579,61.956426278
0.337,102.59401456,61.904424615
0.338,102.4226704,61.858745375
0.339,102.24492713,61.819546534
0.34,102.06060376,61.786994175
0.341,101.86947996,61.761266079
0.342,101.67137208,61.742528032
0.343,101.46593652,61.730962263
0.344,101.25194579,61.726718429
0.345,100.97588733,61.72671731
0.346,100.63607557,61.726716198
0.347,100.24629407,61.726715094
0.348,99.812187973,61.726713999
0.349,99.339786325,61.726712914
0.35,98.834146385,61.726711841
0.351,98.299599577,61.72671078
0.352,97.740319028,61.726709731
0.353,97.160351595,61.726708696
0.354,96.563588719,61.726707674
0.355,95.953562016,61.726706667
0.356,95.333015097,61.726705674
0.357,94.704087415,61.726704696
0.358,94.068492522,61.726703733
0.359,93.427416187,61.726702785
0.36,92.781725854,61.726701853
0.361,92.132041673,61.726700935
0.362,91.478787933,61.726700033
0.363,90.822122448,61.726699147
0.364,90.1620948,61.726698276
0.365,89.498715882,61.726697421
0.366,88.831900371,61.726696581
0.367,88.161553962,61.726695758
0.368,87.487422831,61.72669495
0.369,86.80940965,61.726694159
0.37,86.127325684,61.726693384
0.371,85.441018853,61.726692625
0.372,84.750413994,61.726691883
0.373,84.055413091,61.726691157
0.374,83.355937071,61.726690448
0.375,82.651975603,61.726689756
0.376,81.943502069,61.726689081
0.377,81.230651753,61.726688423
0.378,80.513435651,61.726687782
0.379,79.792029844,61.726687158
0.38,79.066752475,61.726686552
0.381,78.337827538,61.726685963
0.382,77.605295465,61.726685392
0.383,76.869414637,61.726684839
0.384,76.130452833,61.726684304
0.385,75.38848041,61.726683786
0.386,74.643843508,61.726683286
0.387,73.896850726,61.726682805
0.388,73.147781493,61.726682341
0.389,72.396820638,61.726681896
0.39,71.64429703,61.726681469
0.391,70.890415015,61.72668106
0.392,70.135391814,61.726680669
0.393,69.379477522,61.726680297
0.394,68.622881044,61.726679943
0.395,67.865851889,61.726679607
0.396,67.108663513,61.72667929
0.397,66.351567791,61.726678991
0.398,65.59475363,61.726678711
0.399,64.838379106,61.726678449
0.4,64.08263456,61.726678205
0.401,63.327700532,61.726677979
0.402,62.573837267,61.726677772
0.403,61.821188832,61.726677584
0.404,61.06991417,61.726677413
0.405,60.320119051,61.726677261
0.406,59.57206898,61.726677126
0.407,58.825687437,61.72667701
0.408,58.081324468,61.726676912
0.409,57.339194566,61.726676832
0.41,56.599368069,61.72667677
0.411,55.861997704,61.726676726
0.412,55.127206681,61.7266767
0.413,54.395113111,61.726676692
0.414,53.665799219,61.726676701
0.415,52.939355356,61.726676728
0.416,52.216002465,61.726676773
0.417,51.495846209,61.726676835
0.418,50.778964149,61.726676914
0.419,50.06549594,61.726677011
0.42,49.355681141,61.726677125
0.421,48.649594948,61.726677256
0.422,47.947270337,61.726677404
0.423,47.248818124,61.726677569
0.424,46.554399429,61.726677751
0.425,45.864113289,61.726677949
0.426,45.178062203,61.726678165
0.427,44.496422951,61.726678397
0.428,43.819306929,61.726678645
0.429,43.146777913,61.726678909
0.43,42.478964441,61.72667919
0.431,41.815928307,61.726679486
0.432,41.157716023,61.726679799
0.433,40.504445793,61.726680127
0.434,39.856159809,61.726680471
0.435,39.212923996,61.726680831
0.436,38.574826031,61.726681205
0.437,37.941922016,61.726681595
0.438,37.314307763,61.726682001
0.439,36.692076698,61.726682421
0.44,36.075310825,61.726682856
0.441,35.464050786,61.726683306
0.442,34.858357061,61.72668377
0.443,34.258331192,61.726684249
0.444,33.664017549,61.726684742
0.445,33.075471742,61.726685249
0.446,32.492745609,61.72668577
0.447,31.915936848,61.726686304
0.448,31.345112298,61.726686853
0.449,30.780317211,61.726687415
0.45,30.221611443,61.72668799
0.451,29.668998559,61.726688578
0.452,29.122565169,61.72668918
0.453,28.58232446,61.726689794
0.454,28.048335562,61.726690421
0.455,27.52065019,61.726691061
0.456,26.999306077,61.726691712
0.457,26.484333536,61.726692377
0.458,25.975803764,61.726693053
0.459,25.473751612,61.726693741
0.46,24.978208003,61.72669444
0.461,24.489216736,61.726695151
0.462,24.006785902,61.726695874
0.463,23.530920849,61.726696607
0.464,23.061636778,61.726697352
0.465,22.598937535,61.726698108
0.466,22.142814515,61.726698874
0.467,21.693300297,61.72669965
0.468,21.250385503,61.726700437
0.469,20.814085011,61.726701234
0.47,20.384351184,61.726702041
0.471,19.96115053,61.726702858
0.472,19.544453337,61.726703685
0.473,19.134235692,61.72670452
0.474,18.730509067,61.726705366
0.475,18.333262363,61.72670622
0.476,18.094550181,61.741855796
0.477,17.892394283,61.784168039
0.478,17.702013134,61.852069997
0.479,17.524327612,61.943209783
0.48,17.354793351,62.055792963
0.481,17.190575996,62.188530336
0.482,17.031188949,62.34029225
0.483,16.876755498,62.509968843
0.484,16.727168158,62.696481448
0.485,16.581980494,62.898827124
0.486,16.44054904,63.116108279
0.487,16.302194687,63.347540427
0.488,16.166308721,63.592442067
0.489,16.03233643,63.85022486
0.49,15.899828882,64.120379406
0.491,15.768448431,64.402458263
0.492,15.637962137,64.696060154
0.493,15.508288039,65.000811036
0.494,15.37944773,65.316347672
0.495,15.251541171,65.64230533
0.496,15.124695733,65.978313701
0.497,14.999030967,66.323995552
0.498,14.874692726,66.678966945
0.499,14.751812593,67.042835558
0.5,14.630553359,67.415199578
0.501,14.511003131,67.795652846
0.502,14.393228443,68.183792598
0.503,14.277323172,68.579213875
0.504,14.163303445,68.981518039
0.505,14.051157274,69.39031868
0.506,13.940926522,69.805236109
0.507,13.832593978,70.225899614
0.508,13.726102596,70.651956337
0.509,13.621484195,71.083061745
0.51,13.518727561,71.518879148
0.511,13.417759961,71.959089618
0.512,13.318582221,72.403384522
0.513,13.221027855,72.851479803
0.514,13.125122621,73.303104333
0.515,13.030860982,73.757990869
0.516,12.938131811,74.215891164
0.517,12.846778726,74.676583574
0.518,12.75684939,75.13985473
0.519,12.668298363,75.605495624
0.52,12.581146541,76.073306987
0.521,12.495268896,76.543103371
0.522,12.410930591,77.014684717
0.523,12.328152849,77.487841382
0.524,12.2470277,77.962362911
0.525,12.167644759,78.438029845
0.526,12.09011967,78.914615712
0.527,12.014445215,79.391894684
0.528,11.940640241,79.869646618
0.529,11.868743404,80.347651607
0.53,11.798782427,80.82569239
0.531,11.730757283,81.303554033
0.532,11.664554745,81.781041318
0.533,11.600273851,82.257953817
0.534,11.537810994,82.734106477
0.535,11.477107595,83.209324325
0.536,11.417976716,83.683460628
0.537,11.360188696,84.15640134
0.538,11.303811187,84.628033161
0.539,11.248794627,85.098251552
0.54,11.194996747,85.566966626
0.541,11.142515906,86.03408985
0.542,11.091376342,86.499523797
0.543,11.041540469,86.963181286
0.544,10.993087162,87.424965418
0.545,10.946059201,87.884778225
0.546,10.900479222,88.342518912
0.547,10.856377307,88.798084084
0.548,10.813761616,89.251371628
0.549,10.772609368,89.702284015
0.55,10.732939305,90.150724321
0.551,10.694840205,90.596589097
0.552,10.658411094,91.039762704
0.553,10.623694003,91.480124015
0.554,10.590661535,91.917557265
0.555,10.559343279,92.351946229
0.556,10.529751248,92.783175444
0.557,10.501913375,93.211128054
0.558,10.475796572,93.635691733
0.559,10.451379457,94.056760433
0.56,10.428636527,94.474232876
0.561,10.407538833,94.888013696
0.562,10.388062391,95.298012582
0.563,10.370177578,95.704144544
0.564,10.353845563,96.106330937
0.565,10.339020541,96.504500339
0.566,10.325654214,96.89858883
0.567,10.313697772,97.288539915
0.568,10.303102542,97.674304328
0.569,10.293820482,98.055839788
0.57,10.285804327,98.433110713
0.571,10.279007291,98.806087972
0.572,10.273382744,99.174748698
0.573,10.268883865,99.539076136
0.574,10.265463291,99.899059551
0.575,10.263072908,100.25469417
0.576,10.261663726,100.60598116
0.577,10.261185977,100.95292754
0.578,10.261589341,101.2955462
0.579,10.262823231,101.6338557
0.58,10.264837274,101.96788022
0.581,10.267581946,102.29764925
0.582,10.271009179,102.62319734
0.583,10.275072984,102.94456368
0.584,10.279729997,103.26179171
0.585,10.284939813,103.57492859
0.586,10.290665129,103.8840247
0.587,10.296871764,104.18913319
0.588,10.303528615,104.49030949
0.589,10.31060752,104.78761083
0.59,10.318083026,105.08109589
0.591,10.325932103,105.37082438
0.592,10.334133833,105.65685679
0.593,10.342669119,105.93925406
0.594,10.35152041,106.21807742
0.595,10.360671465,106.49338816
0.596,10.370107135,106.76524752
0.597,10.37981319,107.03371656
0.598,10.389776185,107.29885606
0.599,10.399983358,107.56072642
0.6,10.410422566,107.81938763
0.601,10.42108224,108.07489921
0.602,10.431951342,108.3273201
0.603,10.44301935,108.57670869
0.604,10.454276227,108.82312274
0.605,10.465712411,109.06661933
0.606,10.477318795,109.30725483
0.607,10.489086723,109.54508491
0.608,10.501007975,109.78016443
0.609,10.51307476,110.01254749
0.61,10.525279713,110.24228733
0.611,10.537615884,110.46943636
0.612,10.550076729,110.69404612
0.613,10.562656099,110.91616724
0.614,10.575348221,111.13584944
0.615,10.588147683,111.3531415
0.616,10.601049413,111.56809126
0.617,10.614048647,111.7807456
0.618,10.627140913,111.99115045
0.619,10.640321998,112.19935075
0.62,10.653587925,112.40539049
0.621,10.66693493,112.60931269
0.622,10.680359442,112.81115944
0.623,10.693858069,113.01097184
0.624,10.707427578,113.20879008
0.625,10.721064894,113.40465342
0.626,10.734767088,113.59860021
0.627,10.748531374,113.79066787
0.628,10.762355109,113.98089297
0.629,10.776235784,114.16931116
