time,pressure,volume
0,17.942787414,140.871151
0.001,17.987209719,140.87115172
0.002,17.994196321,140.87115244
0.003,17.997021599,140.87115316
0.004,17.995663483,140.87115388
0.005,17.992192308,140.8711546
0.006,17.987320552,140.87115532
0.007,17.981834221,140.87115604
0.008,17.976747459,140.87115676
0.009,17.972991931,140.87115748
0.01,17.971201476,140.8711582
0.011,17.971582638,140.87115892
0.012,17.97388474,140.87115964
0.013,17.977531668,140.87116036
0.014,17.981807106,140.87116108
0.015,17.992242193,140.87433641
0.016,18.018096496,140.88315728
0.017,18.040764617,140.89791365
0.018,18.065019075,140.91817375
0.019,18.090113876,140.94358568
0.02,18.116145699,140.97380667
0.021,18.143412936,141.00845608
0.022,18.172022015,141.04713575
0.023,18.201895096,141.08945798
0.024,18.232867405,141.13506058
0.025,18.264757842,141.1836107
0.026,18.297404106,141.23480276
0.027,18.330675965,141.288354
0.028,18.364478086,141.34399946
0.029,18.398749557,141.40148715
0.03,18.433460169,141.46057372
0.031,18.46860513,141.52102087
0.032,18.504199814,141.58259266
0.033,18.540272867,141.64505366
0.034,18.576859391,141.70816818
0.035,18.61400071,141.7716997
0.036,18.651743297,141.83541042
0.037,18.690138257,141.89906091
0.038,18.729244612,141.96240953
0.039,18.769129599,142.02521152
0.04,18.809866891,142.0872185
0.041,18.851537535,142.14817782
0.042,18.894232956,142.2078317
0.043,18.938054226,142.2659162
0.044,18.983106266,142.32216096
0.045,19.029497418,142.37628919
0.046,19.077338308,142.42801769
0.047,19.126740865,142.47705711
0.048,19.177815783,142.52311239
0.049,19.23067527,142.56588312
0.05,19.285430897,142.60506385
0.051,19.342192503,142.64034484
0.052,19.401070782,142.67141254
0.053,19.462175582,142.69795026
0.054,19.525618878,142.71963948
0.055,19.591527432,142.73616115
0.056,19.66005975,142.7472014
0.057,19.731615414,142.75248099
0.058,19.814640607,142.75287526
0.059,19.908659696,142.7528759
0.06,20.011918891,142.75287655
0.061,20.123620169,142.75287719
0.062,20.243937,142.75287782
0.063,20.373220114,142.75287845
0.064,20.512032822,142.75287908
0.065,20.660932116,142.7528797
0.066,20.820411568,142.75288032
0.067,20.990929245,142.75288093
0.068,21.172947798,142.75288154
0.069,21.366941559,142.75288214
0.07,21.573406545,142.75288273
0.071,21.792864316,142.75288332
0.072,22.025860304,142.7528839
0.073,22.272968601,142.75288447
0.074,22.53479003,142.75288504
0.075,22.811932994,142.75288559
0.076,23.105024026,142.75288614
0.077,23.414688012,142.75288668
0.078,23.741560266,142.75288721
0.079,24.086316793,142.75288773
0.08,24.449660229,142.75288824
0.081,24.832313169,142.75288873
0.082,25.235032262,142.75288922
0.083,25.658594892,142.75288969
0.084,26.103806659,142.75289015
0.085,26.57151228,142.7528906
0.086,27.062571982,142.75289103
0.087,27.577837951,142.75289145
0.088,28.118188936,142.75289185
0.089,28.684525744,142.75289224
0.09,29.277768684,142.75289261
0.091,29.898875392,142.75289296
0.092,30.548826449,142.7528933
0.093,31.228592602,142.75289361
0.094,31.939159836,142.75289391
0.095,32.681543108,142.75289418
0.096,33.456821316,142.75289443
0.097,34.266028553,142.75289466
0.098,35.110242873,142.75289487
0.099,35.990561519,142.75289505
0.1,36.908064533,142.7528952
0.101,37.863822422,142.75289533
0.102,38.858897689,142.75289543
0.103,39.894385395,142.7528955
0.104,40.971368546,142.75289555
0.105,42.090914593,142.75289556
0.106,43.25404723,142.75289554
0.107,44.461765849,142.75289548
0.108,45.71510866,142.7528954
0.109,47.015061031,142.75289527
0.11,48.362600538,142.75289511
0.111,49.758669426,142.75289491
0.112,51.204173176,142.75289467
0.113,52.699988966,142.75289439
0.114,54.246975743,142.75289407
0.115,55.845980903,142.7528937
0.116,57.49776028,142.75289329
0.117,59.203102939,142.75289283
0.118,60.962722395,142.75289232
0.119,62.77725907,142.75289177
0.12,64.378421051,142.72266917
0.121,65.433981693,142.55514767
0.122,66.268849852,142.28167051
0.123,66.934582366,141.93776778
0.124,67.494285982,141.54663194
0.125,67.990831178,141.12276984
0.126,68.452725332,140.67501549
0.127,68.898371795,140.20856302
0.128,69.338969564,139.72638263
0.129,69.780957714,139.23014938
0.13,70.227605115,138.72083782
0.131,70.680158883,138.199095
0.132,71.138672377,137.66545304
0.133,71.602620111,137.12043605
0.134,72.071496187,136.5645763
0.135,72.544906279,135.99839828
0.136,73.022602681,135.42240123
0.137,73.504353169,134.83705684
0.138,73.98998112,134.24280514
0.139,74.479277063,133.64006163
0.14,74.972007688,133.02922116
0.141,75.467871205,132.41067056
0.142,75.966630104,131.7847831
0.143,76.467974826,131.15192694
0.144,76.97165936,130.51246157
0.145,77.477378217,129.86674051
0.146,77.984847982,129.21511498
0.147,78.493848592,128.5579259
0.148,79.004121567,127.89550595
0.149,79.515373774,127.22818703
0.15,80.027401685,126.55629204
0.151,80.539925134,125.88013886
0.152,81.052672512,125.20004693
0.153,81.565472676,124.51632273
0.154,82.078089152,123.82926641
0.155,82.590315971,123.13917181
0.156,83.101890313,122.44633027
0.157,83.612694661,121.75102261
0.158,84.122545433,121.05351629
0.159,84.631194247,120.3540785
0.16,85.138413582,119.65297945
0.161,85.644110766,118.9504735
0.162,86.148080198,118.24680791
0.163,86.650157141,117.54222703
0.164,87.150160101,116.83696812
0.165,87.647862343,116.13127236
0.166,88.143120614,115.42537448
0.167,88.63574958,114.7195055
0.168,89.12564837,114.01388617
0.169,89.612695365,113.30872868
0.17,90.096700367,112.60424327
0.171,90.577620362,111.90062822
0.172,91.055282364,111.19807707
0.173,91.529572985,110.49678021
0.174,92.000435629,109.7969139
0.175,92.46764939,109.09866088
0.176,92.931277611,108.40218523
0.177,93.391201405,107.70763954
0.178,93.847261415,107.01518159
0.179,94.299400452,106.32496347
0.18,94.747554199,105.63712772
0.181,95.191652522,104.95181086
0.182,95.631579419,104.26914734
0.183,96.067248673,103.58927135
0.184,96.498580197,102.91231294
0.185,96.925501178,102.23839679
0.186,97.34795088,101.56764443
0.187,97.765849316,100.90017376
0.188,98.179190593,100.23609347
0.189,98.587917189,99.575506376
0.19,98.991972659,98.918512987
0.191,99.391291737,98.265210806
0.192,99.785844776,97.615693348
0.193,100.1756027,96.970047999
0.194,100.56053319,96.328357316
0.195,100.94059396,95.690701065
0.196,101.31574851,95.057156105
0.197,101.68597234,94.427795301
0.198,102.05125459,93.802686529
0.199,102.41158585,93.18189195
0.2,102.7669405,92.565471077
0.201,103.11730699,91.953479801
0.202,103.46266997,91.345970745
0.203,103.80303402,90.742991986
0.204,104.13839084,90.144587771
0.205,104.46874066,89.550799037
0.206,104.79406916,88.961664618
0.207,105.11438964,88.377219739
0.208,105.42971998,87.797494188
0.209,105.74007214,87.222514164
0.21,106.04545835,86.652302489
0.211,106.34589123,86.086878982
0.212,106.64136924,85.526262174
0.213,106.93190937,84.970468444
0.214,107.21754395,84.419509791
0.215,107.49829772,83.87339422
0.216,107.77417943,83.332128719
0.217,108.04523037,82.795716734
0.218,108.31149757,82.264156266
0.219,108.57300547,81.737442567
0.22,108.82978918,81.215568923
0.221,109.08186909,80.698527166
0.222,109.32927045,80.186308299
0.223,109.57201929,79.678902204
0.224,109.81015971,79.176296043
0.225,110.0437262,78.678474568
0.226,110.27275752,78.185420643
0.227,110.49726616,77.697117595
0.228,110.71725962,77.21355123
0.229,110.93277983,76.734705688
0.23,111.14388181,76.260561065
0.231,111.35057996,75.791097745
0.232,111.55294888,75.326292177
0.233,111.75102989,74.866117422
0.234,111.94484216,74.410547846
0.235,112.13439714,73.959560725
0.236,112.31974442,73.513130539
0.237,112.50093523,73.07123112
0.238,112.6780074,72.633832816
0.239,112.85096198,72.200910505
0.24,113.019839,71.772439018
0.241,113.18466979,71.348392442
0.242,113.34549348,70.928744126
0.243,113.50234704,70.513466834
0.244,113.65526466,70.102532575
0.245,113.80427351,69.695914326
0.246,113.94943305,69.293582675
0.247,114.09076727,68.895507151
0.248,114.22829485,68.501660547
0.249,114.36204156,68.112015947
0.25,114.49204231,67.726546613
0.251,114.61830704,67.345227364
0.252,114.74083264,66.968037286
0.253,114.85967807,66.594953728
0.254,114.97486172,66.225952594
0.255,115.08640699,65.861011924
0.256,115.19435572,65.500107927
0.257,115.29873556,65.143215746
0.258,115.399511,64.790318209
0.259,115.49671593,64.441398571
0.26,115.59037174,64.096439566
0.261,115.6805335,63.755421065
0.262,115.76721508,63.418322247
0.263,115.85041487,63.085126867
0.264,115.93017212,62.755816514
0.265,116.00650231,62.430373373
0.266,116.07938342,62.108784087
0.267,116.14882707,61.791038526
0.268,116.21484341,61.477125572
0.269,116.2774469,61.167036615
0.27,116.33668137,60.860758578
0.271,116.39255065,60.558279887
0.272,116.44511274,60.259585134
0.273,116.49436836,59.964659166
0.274,116.54031666,59.673490781
0.275,116.58295894,59.386069854
0.276,116.62225576,59.102392444
0.277,116.65824763,58.822454741
0.278,116.69095775,58.54624798
0.279,116.72037855,58.273767534
0.28,116.74650217,58.0050106
0.281,116.7693515,57.739973509
0.282,116.78895174,57.478651335
0.283,116.80527679,57.221041015
0.284,116.81832986,56.967143322
0.285,116.82818731,56.716951038
0.286,116.83482861,56.470457366
0.287,116.8382413,56.227661678
0.288,116.83841966,55.98856201
0.289,116.83533428,55.753164121
0.29,116.82901208,55.521469902
0.291,116.81947539,55.293480094
0.292,116.80673058,55.06919442
0.293,116.79074504,54.848615666
0.294,116.77145613,54.631756188
0.295,116.74888288,54.418627438
0.296,116.72297925,54.209243673
0.297,116.69371909,54.003623488
0.298,116.66106807,53.801788324
0.299,116.6249967,53.60376205
0.3,116.58551862,53.40956682
0.301,116.5426456,53.219221107
0.302,116.49644113,53.032736953
0.303,116.44693916,52.850118807
0.304,116.39409595,52.671374897
0.305,116.33787891,52.496519931
0.306,116.27830962,52.325565383
0.307,116.21534005,52.158526075
0.308,116.14893369,51.995423008
0.309,116.07910974,51.836272622
0.31,116.00580992,51.681098221
0.311,115.92908768,51.529916084
0.312,115.84888644,51.382745859
0.313,115.76515198,51.239614183
0.314,115.67788013,51.10054622
0.315,115.58702463,50.965571812
0.316,115.49256619,50.83472008
0.317,115.39447211,50.708022724
0.318,115.29268351,50.585515626
0.319,115.18715066,50.467237227
0.32,115.07776722,50.353236685
0.321,114.96454393,50.243560591
0.322,114.84738148,50.138259077
0.323,114.72618706,50.037392126
0.324,114.60089857,49.941022238
0.325,114.47146239,49.849213391
0.326,114.33776442,49.762036027
0.327,114.19973742,49.679564904
0.328,114.0573101,49.601876018
0.329,113.91035923,49.529053057
0.33,113.75874172,49.461188528
0.331,113.60230621,49.398385226
0.332,113.44097978,49.34075044
0.333,113.27465873,49.288389449
0.334,113.10309841,49.241425274
0.335,112.92616603,49.199989611
0.336,112.74369221,49.164221117
0.337,112.55545276,49.134270432
0.338,112.36132363,49.110290636
0.339,112.16106062,49.092440206
0.34,111.95434261,49.080887429
0.341,111.74077893,49.07575344
0.342,111.4741839,49.075612743
0.343,111.13364832,49.075611506
0.344,110.73468217,49.075610277
0.345,110.2810124,49.075609059
0.346,109.77667276,49.075607851
0.347,109.22557826,49.075606655
0.348,108.63115476,49.075605473
0.349,107.99694264,49.075604306
0.35,107.3268202,49.075603154
0.351,106.62460106,49.075602018
0.352,105.89378314,49.0756009
0.353,105.13726424,49.075599799
0.354,104.35765078,49.075598718
0.355,103.55724052,49.075597655
0.356,102.73838982,49.075596612
0.357,101.9027369,49.075595589
0.358,101.05204048,49.075594587
0.359,100.18780558,49.075593605
0.36,99.311246869,49.075592645
0.361,98.423535659,49.075591706
0.362,97.526007358,49.07559079
0.363,96.619513018,49.075589895
0.364,95.704699978,49.075589022
0.365,94.782190058,49.075588172
0.366,93.852506225,49.075587345
0.367,92.916084058,49.075586541
0.368,91.973565405,49.07558576
0.369,91.02531148,49.075585002
0.37,90.071854877,49.075584267
0.371,89.113508009,49.075583556
0.372,88.150449912,49.075582868
0.373,87.183141617,49.075582205
0.374,86.211977392,49.075581565
0.375,85.237246892,49.075580949
0.376,84.25929573,49.075580357
0.377,83.278436995,49.07557979
0.378,82.294827575,49.075579246
0.379,81.308896526,49.075578727
0.38,80.320994889,49.075578233
0.381,79.331409803,49.075577762
0.382,78.340271028,49.075577317
0.383,77.347990188,49.075576895
0.384,76.354918057,49.075576498
0.385,75.361427667,49.075576126
0.386,74.36777185,49.075575778
0.387,73.374257594,49.075575455
0.388,72.381173573,49.075575157
0.389,71.388878785,49.075574882
0.39,70.39777714,49.075574633
0.391,69.40818561,49.075574408
0.392,68.420318373,49.075574207
0.393,67.434485829,49.075574031
0.394,66.450991389,49.075573879
0.395,65.470110608,49.075573751
0.396,64.492116529,49.075573648
0.397,63.517267749,49.075573568
0.398,62.545860444,49.075573513
0.399,61.578168588,49.075573481
0.4,60.614351919,49.075573474
0.401,59.654684466,49.07557349
0.402,58.699456854,49.07557353
0.403,57.748861923,49.075573593
0.404,56.803122819,49.075573679
0.405,55.862490531,49.075573789
0.406,54.927194669,49.075573922
0.407,53.997474833,49.075574078
0.408,53.073560958,49.075574257
0.409,52.155652848,49.075574458
0.41,51.243952096,49.075574682
0.411,50.338599861,49.075574929
0.412,49.439802518,49.075575197
0.413,48.547769703,49.075575487
0.414,47.662625991,49.0755758
0.415,46.784520198,49.075576134
0.416,45.913639983,49.075576489
0.417,45.050125848,49.075576865
0.418,44.194143213,49.075577263
0.419,43.345812337,49.075577681
0.42,42.505266407,49.075578121
0.421,41.672623939,49.07557858
0.422,40.848013989,49.07557906
0.423,40.031560522,49.07557956
0.424,39.223328142,49.075580079
0.425,38.4234155,49.075580619
0.426,37.631872915,49.075581177
0.427,36.84872525,49.075581755
0.428,36.074026448,49.075582352
0.429,35.307838126,49.075582967
0.43,34.550174323,49.075583601
0.431,33.801076764,49.075584253
0.432,33.060594289,49.075584923
0.433,32.328758778,49.075585611
0.434,31.605622054,49.075586317
0.435,30.891230849,49.07558704
0.436,30.185610063,49.07558778
0.437,29.488778694,49.075588537
0.438,28.800732221,49.07558931
0.439,28.121509175,49.0755901
0.44,27.45112631,49.075590906
0.441,26.789590531,49.075591729
0.442,26.136913039,49.075592566
0.443,25.493077727,49.07559342
0.444,24.858088918,49.075594289
0.445,24.231987323,49.075595172
0.446,23.6148087,49.075596071
0.447,23.00655438,49.075596984
0.448,22.407287883,49.075597911
0.449,21.817058242,49.075598853
0.45,21.235879451,49.075599808
0.451,20.663750269,49.075600777
0.452,20.100649307,49.075601759
0.453,19.546541379,49.075602755
0.454,19.207075461,49.090174183
0.455,18.962148693,49.137549514
0.456,18.735607754,49.215339112
0.457,18.531306215,49.319744163
0.458,18.342734272,49.447693111
0.459,18.164061846,49.597060228
0.46,17.993089543,49.766179885
0.461,17.829144515,49.953554653
0.462,17.671457939,50.157821684
0.463,17.518921163,50.377794398
0.464,17.370226322,50.612489039
0.465,17.224132374,50.861119762
0.466,17.079612103,51.123067884
0.467,16.935857007,51.397847694
0.468,16.792381873,51.68506548
0.469,16.649023401,51.984370894
0.47,16.505758902,52.295432063
0.471,16.362686058,52.617919253
0.472,16.219972484,52.951493317
0.473,16.077823842,53.295799936
0.474,15.936435474,53.650470456
0.475,15.795977972,54.015124957
0.476,15.656685012,54.389367196
0.477,15.51868538,54.772792413
0.478,15.382146128,55.164988661
0.479,15.247145736,55.565543322
0.48,15.113776521,55.974046264
0.481,14.982166878,56.390083507
0.482,14.852442492,56.81323904
0.483,14.72471593,57.243092868
0.484,14.599057566,57.679227789
0.485,14.4754925,58.121235514
0.486,14.354089437,58.568712719
0.487,14.234873538,59.021262963
0.488,14.117764221,59.478510652
0.489,14.002808179,59.940089642
0.49,13.889973365,60.405645785
0.491,13.779241873,60.874840281
0.492,13.670557671,61.347350595
0.493,13.563933087,61.822863007
0.494,13.459238892,62.301088724
0.495,13.35651056,62.781746965
0.496,13.255687161,63.264571115
0.497,13.156657656,63.749313059
0.498,13.059309199,64.235753013
0.499,12.963617451,64.723678806
0.5,12.869570664,65.212890065
0.501,12.777171499,65.703190286
0.502,12.686347153,66.194397719
0.503,12.59726368,66.686322329
0.504,12.509878408,67.178775203
0.505,12.424176143,67.671580342
0.506,12.34037505,68.164543307
0.507,12.258484391,68.657465485
0.508,12.178530635,69.150156482
0.509,12.100601354,69.642415597
0.51,12.024686988,70.134048819
0.511,11.950790427,70.624867663
0.512,11.878981644,71.114682052
0.513,11.809270361,71.603302078
0.514,11.741628807,72.090547491
0.515,11.675961149,72.57624966
0.516,11.612044388,73.060277236
0.517,11.550010012,73.542489848
0.518,11.489773321,74.02275681
0.519,11.431083094,74.500980426
0.52,11.373954588,74.977070013
0.521,11.318485151,75.45092909
0.522,11.264713411,75.922454476
0.523,11.212564959,76.391550891
0.524,11.162043111,76.858130276
0.525,11.113198541,77.322099068
0.526,11.065992998,77.783368188
0.527,11.020406044,78.241854854
0.528,10.976436209,78.697477867
0.529,10.934148119,79.150152539
0.53,10.893591205,79.599787868
0.531,10.85481402,80.046288329
0.532,10.817840331,80.489556089
0.533,10.782684265,80.929494685
0.534,10.749381651,81.366004124
0.535,10.71793416,81.798985674
0.536,10.688331826,82.228343498
0.537,10.660546506,82.653986933
0.538,10.6345516,83.075830754
0.539,10.6103226,83.493794605
0.54,10.587829899,83.907803293
0.541,10.567037229,84.317787517
0.542,10.547904456,84.723684308
0.543,10.53038964,85.125437127
0.544,10.514449809,85.522995829
0.545,10.50004107,85.916316592
0.546,10.487118515,86.305361864
0.547,10.475636144,86.690100315
0.548,10.465546848,87.070506804
0.549,10.456802471,87.446562336
0.55,10.449353919,87.81825401
0.551,10.443151279,88.185574955
0.552,10.438143952,88.548524252
0.553,10.434280781,88.907106836
0.554,10.431510224,89.261333389
0.555,10.429780564,89.611220204
0.556,10.429040184,89.956789021
0.557,10.429237883,90.298066832
0.558,10.430323229,90.63508564
0.559,10.432246917,90.967882183
0.56,10.43496111,91.296497616
0.561,10.438419736,91.620977172
0.562,10.442578739,91.941369782
0.563,10.447396255,92.257727699
0.564,10.452832723,92.5701061
0.565,10.458850931,92.878562705
0.566,10.465415998,93.1831574
0.567,10.472495316,93.483951877
0.568,10.480058448,93.781009304
0.569,10.488077012,94.074394014
0.57,10.49652455,94.36417122
0.571,10.505376401,94.650406761
0.572,10.514609568,94.933166867
0.573,10.524202606,95.212517949
0.574,10.534135508,95.488526412
0.575,10.544389605,95.761258486
0.576,10.55494747,96.030780074
0.577,10.565792832,96.297156618
0.578,10.576910492,96.560452978
0.579,10.588286245,96.820733331
0.58,10.599906812,97.078061072
0.581,10.611759768,97.332498738
0.582,10.623833486,97.584107939
0.583,10.636117074,97.832949294
0.584,10.648600328,98.079082381
0.585,10.661273679,98.322565697
0.586,10.674128149,98.563456619
0.587,10.687155311,98.801811378
0.588,10.700347245,99.037685035
0.589,10.713696508,99.271131462
0.59,10.727196097,99.502203333
0.591,10.740839419,99.730952115
0.592,10.754620266,99.957428063
0.593,10.768532785,100.18168022
0.594,10.782571457,100.40375643
0.595,10.796731071,100.62370331
0.596,10.811006708,100.84156631
0.597,10.825393719,101.05738969
0.598,10.839887705,101.27121652
0.599,10.854484505,101.48308874
0.6,10.869180177,101.69304712
0.601,10.883970981,101.90113133
0.602,10.898853371,102.10737993
0.603,10.91382398,102.31183038
0.604,10.928879604,102.5145191
0.605,10.944017199,102.71548143
0.606,10.959233862,102.91475171
0.607,10.974526828,103.11236328
0.608,10.989893456,103.3083485
0.609,11.005331222,103.50273877
0.61,11.020837712,103.69556456
0.611,11.036410609,103.88685543
0.612,11.052047692,104.07664005
0.613,11.067746823,104.26494624
0.614,11.083505944,104.45180098
0.615,11.099323069,104.63723044
0.616,11.115196278,104.82125997
0.617,11.131123713,105.0039142
0.618,11.147103574,105.18521698
0.619,11.163134113,105.36519146
0.62,11.179213631,105.54386007
0.621,11.195340474,105.7212446
0.622,11.211513033,105.89736614
0.623,11.227729739,106.07224517
0.624,11.243989063,106.24590158
0.625,11.260289511,106.41835462
0.626,11.276629625,106.589623
0.627,11.293007982,106.75972486
0.628,11.30942319,106.92867782
0.629,11.325873886,107.09649896
0.63,11.342358741,107.26320489
