time,pressure,volume
0,17.51639254,140.871151
0.001,18.407770628,141.1936469
0.002,18.527430922,141.51064124
0.003,18.667183779,141.81156517
0.004,18.772919072,142.1003773
0.005,18.867065468,142.37958762
0.006,18.963706857,142.64917809
0.007,19.061372266,142.90893136
0.008,19.155999477,143.15917136
0.009,19.245858415,143.40053082
0.01,19.331062213,143.63366158
0.011,19.41221224,143.85912696
0.012,19.489692448,144.07741596
0.013,19.5636036,144.28898394
0.014,19.63396921,144.4942711
0.015,19.700927918,144.69369267
0.016,19.764782971,144.88761797
0.017,19.825940745,145.07635513
0.018,19.884802217,145.26014974
0.019,19.941677059,145.43919601
0.02,19.996749505,145.61365416
0.021,20.050096945,145.78366635
0.022,20.101742196,145.94936621
0.023,20.151718139,146.11087985
0.024,20.200117252,146.2683195
0.025,20.247110184,146.42177382
0.026,20.292932462,146.57129931
0.027,20.337845484,146.71691638
0.028,20.382088724,146.85861177
0.029,20.425836854,146.9963468
0.03,20.469177766,147.13006917
0.031,20.512121159,147.25972421
0.032,20.55462251,147.3852631
0.033,20.596616504,147.50664655
0.034,20.638050413,147.62384397
0.035,20.678904867,147.73682939
0.036,20.719207952,147.84557548
0.037,20.759030886,147.9500476
0.038,20.798479227,148.05019929
0.039,20.837680858,148.14596927
0.04,20.876774764,148.23728015
0.041,20.915903905,148.32403823
0.042,20.955205227,148.40613452
0.043,20.994804981,148.4834466
0.044,21.034825671,148.55583991
0.045,21.075385046,148.62316864
0.046,21.116594022,148.6852771
0.047,21.158560307,148.74200066
0.048,21.201392864,148.79316607
0.049,21.245199178,148.83859203
0.05,21.290087075,148.87808968
0.051,21.336166256,148.91146306
0.052,21.383549114,148.93851001
0.053,21.432355486,148.95902375
0.054,21.482721648,148.97279883
0.055,21.534890524,148.97966053
0.056,21.594853437,148.98051724
0.057,21.671923846,148.98051789
0.058,21.755760247,148.98051853
0.059,21.847728624,148.98051917
0.06,21.94764547,148.9805198
0.061,22.055814271,148.98052043
0.062,22.172796169,148.98052106
0.063,22.299083832,148.98052168
0.064,22.435072989,148.9805223
0.065,22.581127392,148.98052292
0.066,22.737615487,148.98052353
0.067,22.904922137,148.98052413
0.068,23.08346295,148.98052473
0.069,23.27367613,148.98052533
0.07,23.476031778,148.98052591
0.071,23.691039411,148.98052649
0.072,23.919238564,148.98052707
0.073,24.161185631,148.98052763
0.074,24.417441739,148.98052819
0.075,24.688568022,148.98052874
0.076,24.975117967,148.98052928
0.077,25.277647971,148.98052981
0.078,25.596725755,148.98053034
0.079,25.93295452,148.98053085
0.08,26.286975428,148.98053135
0.081,26.659459052,148.98053184
0.082,27.05109144,148.98053232
0.083,27.462578416,148.98053279
0.084,27.894645504,148.98053325
0.085,28.348024111,148.98053369
0.086,28.823464379,148.98053412
0.087,29.3217131,148.98053453
0.088,29.843516537,148.98053493
0.089,30.389610144,148.98053531
0.09,30.960770797,148.98053568
0.091,31.557803705,148.98053603
0.092,32.181514742,148.98053636
0.093,32.832751157,148.98053668
0.094,33.512310519,148.98053697
0.095,34.221003549,148.98053725
0.096,34.9596924,148.9805375
0.097,35.729230486,148.98053773
0.098,36.530481001,148.98053794
0.099,37.364334315,148.98053813
0.1,38.231657604,148.98053829
0.101,39.133310439,148.98053842
0.102,40.070181735,148.98053853
0.103,41.043083214,148.98053862
0.104,42.052870314,148.98053867
0.105,43.100382016,148.9805387
0.106,44.186437433,148.98053869
0.107,45.311835781,148.98053866
0.108,46.477358363,148.98053859
0.109,47.68378503,148.98053849
0.11,48.931859244,148.98053835
0.111,50.222284969,148.98053818
0.112,51.555771152,148.98053798
0.113,52.932976474,148.98053773
0.114,54.354550862,148.98053744
0.115,55.821104583,148.98053712
0.116,57.33320713,148.98053675
0.117,58.891401551,148.98053634
0.118,60.496196873,148.98053589
0.119,62.148040493,148.98053539
0.12,63.847325782,148.98053485
0.121,65.594427192,148.98053425
0.122,67.277305669,148.96778482
0.123,68.339560254,148.83444905
0.124,69.186883454,148.59289616
0.125,69.854934141,148.2800635
0.126,70.410976806,147.92015552
0.127,70.901076202,147.52809112
0.128,71.354987395,147.11286278
0.129,71.791581056,146.67972811
0.13,72.222265472,146.23168203
0.131,72.653643491,145.77040207
0.132,73.089073005,145.29685173
0.133,73.529811793,144.8116657
0.134,73.975935172,144.31536714
0.135,74.427126168,143.80845193
0.136,74.882963781,143.2914124
0.137,75.343048757,142.76473774
0.138,75.807206904,142.22889219
0.139,76.275262324,141.68430823
0.14,76.747029959,141.13139469
0.141,77.222366968,140.57053158
0.142,77.701023733,140.00208646
0.143,78.182781613,139.42641408
0.144,78.667379327,138.84386142
0.145,79.154558026,138.25477116
0.146,79.64408592,137.65947713
0.147,80.135743178,137.05830536
0.148,80.629257499,136.45157832
0.149,81.124434958,135.83961068
0.15,81.621090857,135.22270563
0.151,82.118903368,134.601169
0.152,82.617678914,133.97530461
0.153,83.117263282,133.34540071
0.154,83.617443302,132.71174012
0.155,84.118024537,132.07460033
0.156,84.618768936,131.43425704
0.157,85.119499641,130.79098138
0.158,85.620074005,130.14503318
0.159,86.120309598,129.49666616
0.16,86.620056035,128.84612591
0.161,87.11910539,128.1936567
0.162,87.617340872,127.53949405
0.163,88.114680997,126.88386028
0.164,88.611018636,126.22696331
0.165,89.106189108,125.56901006
0.166,89.599995043,124.91020765
0.167,90.092231527,124.25076866
0.168,90.582772157,123.59090106
0.169,91.071492915,122.93080554
0.17,91.558288169,122.27067499
0.171,92.042998162,121.61070127
0.172,92.525582164,120.95106457
0.173,93.005852992,120.29194301
0.174,93.483678729,119.63351645
0.175,93.95894539,118.97595888
0.176,94.43155821,118.31944158
0.177,94.901461725,117.66412276
0.178,95.368520026,117.01015771
0.179,95.832746646,116.35769204
0.18,96.294034771,115.70686182
0.181,96.752224412,115.05781058
0.182,97.207291089,114.41067009
0.183,97.659126721,113.76557546
0.184,98.107617342,113.12265574
0.185,98.552773963,112.48203389
0.186,98.994544905,111.84382102
0.187,99.432864686,111.20812487
0.188,99.867647509,110.57505391
0.189,100.29885243,109.94471127
0.19,100.72640192,109.31719715
0.191,101.15021786,108.69261318
0.192,101.57022296,108.07105833
0.193,101.98636217,107.4526316
0.194,102.39861717,106.83742329
0.195,102.80693993,106.22552039
0.196,103.21130197,105.61700505
0.197,103.61167203,105.01195484
0.198,104.00799456,104.41044563
0.199,104.40021228,103.81255348
0.2,104.78831393,103.2183494
0.201,105.17227864,102.62789963
0.202,105.55208014,102.0412668
0.203,105.92769019,101.45851106
0.204,106.29909147,100.87968922
0.205,106.66626778,100.30485446
0.206,107.02919648,99.734057564
0.207,107.38785484,99.167347312
0.208,107.74222507,98.604770384
0.209,108.09230311,98.046369879
0.21,108.43808685,97.492185079
0.211,108.77957221,96.94225213
0.212,109.11675738,96.396604143
0.213,109.44963703,95.855271837
0.214,109.77820873,95.318283672
0.215,110.10247232,94.78566574
0.216,110.42243503,94.257441281
0.217,110.7381071,93.733630323
0.218,111.04949266,93.214250638
0.219,111.35659901,92.699317952
0.22,111.65943641,92.188845636
0.221,111.95801978,91.682844588
0.222,112.25237173,91.181322409
0.223,112.54251144,90.684283839
0.224,112.8284465,90.19173243
0.225,113.11018257,89.703671356
0.226,113.38773734,89.220102162
0.227,113.66112927,88.741024495
0.228,113.9303742,88.266436523
0.229,114.19548771,87.796335315
0.23,114.45649443,87.330716121
0.231,114.71342515,86.869571375
0.232,114.96630368,86.412891754
0.233,115.21515553,85.960666382
0.234,115.46000505,85.512882973
0.235,115.70087586,85.069528234
0.236,115.93778511,84.63058832
0.237,116.17074098,84.196050544
0.238,116.39977325,83.765900996
0.239,116.62490838,83.340124258
0.24,116.84617111,82.918704128
0.241,117.06359044,82.501623007
0.242,117.27718268,82.088863385
0.243,117.48698111,81.680406902
0.244,117.69303147,81.276231806
0.245,117.8953635,80.876315172
0.246,118.09400723,80.480633204
0.247,118.28898,80.089162745
0.248,118.48029999,79.701881502
0.249,118.66799913,79.318766603
0.25,118.85209802,78.939795027
0.251,119.03260828,78.564945229
0.252,119.20955519,78.194195899
0.253,119.38297343,77.827524186
0.254,119.55286694,77.464909086
0.255,119.7192845,77.106327666
0.256,119.88225786,76.751755008
0.257,120.04181089,76.40116651
0.258,120.19796989,76.054537274
0.259,120.35073301,75.711844965
0.26,120.50010102,75.373070677
0.261,120.64610962,75.038194693
0.262,120.78879869,74.70719443
0.263,120.92818687,74.380047417
0.264,121.06427486,74.05673366
0.265,121.19707347,73.737234777
0.266,121.32660734,73.421532367
0.267,121.45288534,73.109608617
0.268,121.57591966,72.801447088
0.269,121.69572274,72.497031781
0.27,121.81230453,72.196347897
0.271,121.92567127,71.89938154
0.272,122.03583392,71.60611987
0.273,122.14277945,71.316552762
0.274,122.24650713,71.030672486
0.275,122.34704401,70.748469979
0.276,122.44440883,70.469934969
0.277,122.53860554,70.195057502
0.278,122.62963788,69.923829317
0.279,122.71749403,69.656244123
0.28,122.80220168,69.392295195
0.281,122.88378303,69.131973346
0.282,122.96222723,68.875271468
0.283,123.03754947,68.622182851
0.284,123.10974994,68.372701003
0.285,123.17882537,68.126821648
0.286,123.24478667,67.884540061
0.287,123.30762877,67.645852947
0.288,123.36735034,67.410757859
0.289,123.42393183,67.179255038
0.29,123.47735317,66.951348625
0.291,123.52758586,66.727045415
0.292,123.5746432,66.506352066
0.293,123.61852363,66.289274363
0.294,123.65918729,66.075822083
0.295,123.69661577,65.866007903
0.296,123.73077795,65.659846388
0.297,123.7616311,65.457357142
0.298,123.7891532,65.258561275
0.299,123.81331435,65.063481671
0.3,123.83411215,64.87214101
0.301,123.85150912,64.684562343
0.302,123.86543843,64.50077645
0.303,123.87588147,64.320813903
0.304,123.88282852,64.14470423
0.305,123.88620588,63.972481853
0.306,123.88596958,63.804185067
0.307,123.8821174,63.639849861
0.308,123.87461241,63.479512396
0.309,123.86341455,63.323209906
0.31,123.84843314,63.170987716
0.311,123.82963842,63.022892156
0.312,123.80696543,62.878971484
0.313,123.78037484,62.73927629
0.314,123.74979953,62.603859322
0.315,123.71514357,62.472779535
0.316,123.67633675,62.346100988
0.317,123.63329616,62.223890858
0.318,123.58592783,62.106221703
0.319,123.53413603,61.993171118
0.32,123.47781749,61.884822124
0.321,123.41687438,61.781262161
0.322,123.35114864,61.682587689
0.323,123.28046474,61.588909003
0.324,123.20471431,61.500339817
0.325,123.12374125,61.417001758
0.326,123.03741128,61.339022067
0.327,122.94560444,61.266529959
0.328,122.84814611,61.199662448
0.329,122.74490867,61.138561345
0.33,122.6357248,61.083372143
0.331,122.52035622,61.034254437
0.332,122.39855074,60.991383601
0.333,122.27009524,60.954944776
0.334,122.13477463,60.925129993
0.335,121.99235346,60.902137524
0.336,121.84252699,60.886173112
0.337,121.68487536,60.877438034
0.338,121.50822042,60.875810875
0.339,121.23571639,60.8758095
0.34,120.90026201,60.875808131
0.341,120.50262902,60.875806772
0.342,120.04841531,60.875805423
0.343,119.54260639,60.875804086
0.344,118.98980765,60.875802762
0.345,118.39452754,60.875801452
0.346,117.76124575,60.875800158
0.347,117.09454104,60.87579888
0.348,116.39870353,60.875797619
0.349,115.67739402,60.875796376
0.35,114.9338865,60.875795151
0.351,114.17090587,60.875793945
0.352,113.39077639,60.875792758
0.353,112.59564654,60.875791591
0.354,111.78738033,60.875790444
0.355,110.96758235,60.875789318
0.356,110.13771533,60.875788213
0.357,109.29889686,60.875787128
0.358,108.45209361,60.875786065
0.359,107.5981861,60.875785023
0.36,106.73782198,60.875784003
0.361,105.87146768,60.875783005
0.362,104.99949819,60.875782028
0.363,104.12229922,60.875781074
0.364,103.24011732,60.875780142
0.365,102.35312116,60.875779232
0.366,101.46137417,60.875778344
0.367,100.56502315,60.87577748
0.368,99.664219772,60.875776637
0.369,98.759067662,60.875775818
0.37,97.849636729,60.875775022
0.371,96.935956868,60.875774248
0.372,96.018232261,60.875773498
0.373,95.096694486,60.875772771
0.374,94.17153916,60.875772068
0.375,93.242978652,60.875771388
0.376,92.311105597,60.875770731
0.377,91.376066565,60.875770098
0.378,90.438180711,60.875769489
0.379,89.497687211,60.875768904
0.38,88.554726834,60.875768342
0.381,87.609596705,60.875767805
0.382,86.662626771,60.875767291
0.383,85.713998636,60.875766802
0.384,84.764057951,60.875766336
0.385,83.813113819,60.875765895
0.386,82.861397493,60.875765477
0.387,81.909151418,60.875765084
0.388,80.956673061,60.875764715
0.389,80.004182442,60.87576437
0.39,79.051986937,60.875764049
0.391,78.100382444,60.875763753
0.392,77.14965951,60.87576348
0.393,76.200005819,60.875763232
0.394,75.251740724,60.875763007
0.395,74.305058075,60.875762807
0.396,73.360311337,60.87576263
0.397,72.417677995,60.875762478
0.398,71.477330868,60.875762349
0.399,70.539489488,60.875762244
0.4,69.604386966,60.875762163
0.401,68.672227329,60.875762105
0.402,67.743181344,60.875762071
0.403,66.817525484,60.875762061
0.404,65.89549158,60.875762073
0.405,64.977223009,60.87576211
0.406,64.062852881,60.875762169
0.407,63.152475034,60.875762251
0.408,62.246342911,60.875762356
0.409,61.344664763,60.875762485
0.41,60.447609355,60.875762635
0.411,59.55520302,60.875762809
0.412,58.667652845,60.875763005
0.413,57.785123658,60.875763223
0.414,56.907883906,60.875763464
0.415,56.035983543,60.875763726
0.416,55.1695729,60.875764011
0.417,54.308761684,60.875764317
0.418,53.453683434,60.875764645
0.419,52.604547742,60.875764994
0.42,51.76141312,60.875765365
0.421,50.924437073,60.875765756
0.422,50.093765949,60.875766169
0.423,49.269462914,60.875766603
0.424,48.45170035,60.875767057
0.425,47.640596934,60.875767532
0.426,46.836340241,60.875768026
0.427,46.039045336,60.875768542
0.428,45.248792279,60.875769076
0.429,44.465716805,60.875769631
0.43,43.689897475,60.875770205
0.431,42.921370519,60.875770799
0.432,42.16023584,60.875771412
0.433,41.406511798,60.875772043
0.434,40.660287438,60.875772694
0.435,39.92162185,60.875773363
0.436,39.190522368,60.87577405
0.437,38.467048369,60.875774755
0.438,37.751275892,60.875775479
0.439,37.043254299,60.87577622
0.44,36.342993593,60.875776979
0.441,35.650543806,60.875777755
0.442,34.965938706,60.875778548
0.443,34.289212844,60.875779358
0.444,33.620379857,60.875780185
0.445,32.95951375,60.875781028
0.446,32.306673913,60.875781887
0.447,31.661913344,60.875782763
0.448,31.025246011,60.875783654
0.449,30.396703327,60.875784561
0.45,29.776327094,60.875785484
0.451,29.164131506,60.875786422
0.452,28.560146961,60.875787374
0.453,27.964411377,60.875788342
0.454,27.376912265,60.875789324
0.455,26.797683419,60.87579032
0.456,26.22675498,60.87579133
0.457,25.664120761,60.875792355
0.458,25.10978901,60.875793393
0.459,24.563762927,60.875794444
0.46,24.026016531,60.875795509
0.461,23.496485879,60.875796586
0.462,22.975134518,60.875797677
0.463,22.461926705,60.87579878
0.464,21.956877707,60.875799895
0.465,21.459995171,60.875801023
0.466,20.971269871,60.875802162
0.467,20.490688175,60.875803314
0.468,20.018227891,60.875804476
0.469,19.5538518,60.87580565
0.47,19.283417561,60.894299273
0.471,19.051763573,60.944183625
0.472,18.836395538,61.023323473
0.473,18.637964159,61.128743552
0.474,18.450503011,61.258203762
0.475,18.270229992,61.410123318
0.476,18.096184005,61.583160488
0.477,17.928212213,61.776036896
0.478,17.765933399,61.987543189
0.479,17.60863132,62.216582384
0.48,17.455438745,62.462194617
0.481,17.305454578,62.723561547
0.482,17.157853196,62.999996787
0.483,17.012010446,63.290921225
0.484,16.867492504,63.595832109
0.485,16.723988431,63.914285004
0.486,16.581374244,64.245869206
0.487,16.439664271,64.5901867
0.488,16.298935721,64.946840279
0.489,16.159316891,65.315428448
0.49,16.020977107,65.695538188
0.491,15.884102912,66.086741475
0.492,15.748838254,66.488602296
0.493,15.615372893,66.900671443
0.494,15.483859556,67.322488068
0.495,15.354390305,67.753589677
0.496,15.227059821,68.193512252
0.497,15.101881739,68.641798854
0.498,14.978908482,69.097998141
0.499,14.858138198,69.561669399
0.5,14.739639177,70.032374369
0.501,14.623331184,70.509691541
0.502,14.509293877,70.993206444
0.503,14.397515893,71.482510646
0.504,14.287935374,71.977213453
0.505,14.180518204,72.476938367
0.506,14.075191611,72.98132884
0.507,13.971965275,73.490034808
0.508,13.870719958,74.002730793
0.509,13.771502995,74.519094311
0.51,13.674205673,75.038822941
0.511,13.578977963,75.561609441
0.512,13.485853284,76.08714545
0.513,13.394947717,76.615117115
0.514,13.30638155,77.145203605
0.515,13.22027962,77.677070247
0.516,13.136565282,78.210402633
0.517,13.055515634,78.744862891
0.518,12.977318133,79.280091933
0.519,12.901813234,79.815748135
0.52,12.829091046,80.351503088
0.521,12.759242277,80.887012402
0.522,12.692189185,81.421950609
0.523,12.627870626,81.956006368
0.524,12.56611021,82.488895536
0.525,12.506728945,83.020364406
0.526,12.449583808,83.550184971
0.527,12.394498358,84.078157065
0.528,12.341388849,84.604099179
0.529,12.290223695,85.127840189
0.53,12.241088803,85.649204865
0.531,12.194040558,86.168012413
0.532,12.149086634,86.684083372
0.533,12.10626135,87.197239344
0.534,12.06560328,87.707299975
0.535,12.027162481,88.214082625
0.536,11.990930573,88.717407175
0.537,11.956890545,89.217099943
0.538,11.925019741,89.712993272
0.539,11.895289081,90.204926805
0.54,11.867674639,90.692746679
0.541,11.842144792,91.17630595
0.542,11.818658092,91.65546575
0.543,11.797167183,92.130096013
0.544,11.777622058,92.600075695
0.545,11.759971604,93.065292744
0.546,11.744163946,93.525643982
0.547,11.730146325,93.981035001
0.548,11.717864888,94.43138009
0.549,11.707264427,94.876602192
0.55,11.698288232,95.316632894
0.551,11.69087802,95.751412421
0.552,11.684973908,96.180889647
0.553,11.680514475,96.605022092
0.554,11.677436829,97.023775914
0.555,11.675676719,97.437125889
0.556,11.675168753,97.845055371
0.557,11.67584677,98.247556203
0.558,11.677644287,98.644628578
0.559,11.680495037,99.036280835
0.56,11.684333602,99.42252918
0.561,11.689096077,99.803397323
0.562,11.694720676,100.17891605
0.563,11.70114826,100.54912272
0.564,11.708322772,100.91406071
0.565,11.716191546,101.27377888
0.566,11.724705471,101.62833091
0.567,11.733819021,101.9777748
0.568,11.74349018,102.32217224
0.569,11.753680295,102.66158808
0.57,11.764353871,102.99608989
0.571,11.775478342,103.32574745
0.572,11.787023823,103.65063235
0.573,11.798962845,103.97081765
0.574,11.811270108,104.28637752
0.575,11.823922233,104.59738698
0.576,11.836897539,104.90392165
0.577,11.850175839,105.20605753
0.578,11.863738264,105.50387082
0.579,11.877567106,105.79743775
0.58,11.89164569,106.08683448
0.581,11.90595827,106.37213695
0.582,11.92048994,106.65342079
0.583,11.935226575,106.93076123
0.584,11.950154777,107.204233
0.585,11.965261847,107.47391028
0.586,11.980535756,107.73986663
0.587,11.995965133,108.00217492
0.588,12.011539251,108.26090725
0.589,12.027248016,108.51613492
0.59,12.043081957,108.76792835
0.591,12.059032208,109.01635705
0.592,12.075090491,109.26148955
0.593,12.091249088,109.50339339
0.594,12.10750082,109.74213502
0.595,12.123839006,109.97777983
0.596,12.14025744,110.21039209
0.597,12.156750352,110.44003491
0.598,12.173312376,110.66677026
0.599,12.18993852,110.89065891
0.6,12.20662414,111.11176047
0.601,12.223364909,111.33013333
0.602,12.240156801,111.54583469
0.603,12.256996069,111.75892055
0.604,12.273879224,111.96944572
0.605,12.290803027,112.1774638
0.606,12.307764466,112.3830272
0.607,12.324760748,112.58618714
0.608,12.341789282,112.78699369
0.609,12.358847664,112.98549573
0.61,12.375933665,113.18174099
0.611,12.393045215,113.37577605
0.612,12.41018039,113.56764638
0.613,12.427337396,113.75739632
0.614,12.444514556,113.94506913
0.615,12.461710299,114.13070699
0.616,12.478923147,114.31435102
0.617,12.496151706,114.4960413
0.618,12.513394657,114.6758169
0.619,12.530650747,114.85371591
0.62,12.547918785,115.02977542
0.621,12.565197634,115.20403159
0.622,12.58248621,115.37651964
0.623,12.599783473,115.54727388
0.624,12.61708843,115.71632776
0.625,12.634400126,115.88371384
0.626,12.651717645,116.04946384
0.627,12.669040106,116.21360866
0.628,12.686366658,116.37617841
0.629,12.703696483,116.5372024
