time,pressure,volume
0,21.973437804,140.871151
0.001,22.01098401,140.87115153
0.002,22.017892069,140.87115207
0.003,22.019829956,140.8711526
0.004,22.018528745,140.87115313
0.005,22.015741438,140.87115366
0.006,22.012221857,140.87115419
0.007,22.008793519,140.87115472
0.008,22.006195893,140.87115525
0.009,22.004879884,140.87115578
0.01,22.00500022,140.87115631
0.011,22.006421584,140.87115684
0.012,22.008781583,140.87115737
0.013,22.011591289,140.8711579
0.014,22.014374917,140.87115842
0.015,22.016797333,140.87115895
0.016,22.018738769,140.87115948
0.017,22.02029306,140.87116001
0.018,22.021662426,140.87116053
0.019,22.023056062,140.87116106
0.02,22.024619755,140.87116159
0.021,22.026413309,140.87116211
0.022,22.028428501,140.87116264
0.023,22.030625211,140.87116317
0.024,22.032964986,140.87116369
0.025,22.035432082,140.87116422
0.026,22.038039081,140.87116474
0.027,22.040822037,140.87116527
0.028,22.0438313,140.87116579
0.029,22.047122061,140.87116632
0.03,22.050751841,140.87116684
0.031,22.054779359,140.87116736
0.032,22.0592662,140.87116789
0.033,22.064279921,140.87116841
0.034,22.069894608,140.87116893
0.035,22.076191564,140.87116945
0.036,22.083259307,140.87116998
0.037,22.091193763,140.8711705
0.038,22.100099023,140.87117102
0.039,22.110085323,140.87117154
0.04,22.121267911,140.87117206
0.041,22.133766123,140.87117258
0.042,22.147702739,140.8711731
0.043,22.163203792,140.87117361
0.044,22.180400099,140.87117413
0.045,22.199425801,140.87117465
0.046,22.220418829,140.87117516
0.047,22.243521413,140.87117568
0.048,22.268879592,140.87117619
0.049,22.296643433,140.8711767
0.05,22.326968417,140.87117721
0.051,22.360014086,140.87117772
0.052,22.395943789,140.87117823
0.053,22.434923359,140.87117874
0.054,22.477122913,140.87117924
0.055,22.522717263,140.87117975
0.056,22.571884085,140.87118025
0.057,22.624802208,140.87118075
0.058,22.681653802,140.87118125
0.059,22.74262329,140.87118174
0.06,22.80789628,140.87118224
0.061,22.877664322,140.87118273
0.062,22.952123173,140.87118322
0.063,23.03147378,140.87118371
0.064,23.115922634,140.87118419
0.065,23.205681555,140.87118467
0.066,23.300968298,140.87118515
0.067,23.402006091,140.87118563
0.068,23.509022901,140.8711861
0.069,23.622252058,140.87118657
0.07,23.741932448,140.87118703
0.071,23.868310168,140.87118749
0.072,24.001638247,140.87118795
0.073,24.142178894,140.8711884
0.074,24.290200702,140.87118885
0.075,24.445985534,140.8711893
0.076,24.609827435,140.87118974
0.077,24.782031703,140.87119017
0.078,24.962911747,140.8711906
0.079,25.152790429,140.87119102
0.08,25.351998208,140.87119144
0.081,25.560871403,140.87119185
0.082,25.779758168,140.87119226
0.083,26.009015621,140.87119266
0.084,26.249011704,140.87119305
0.085,26.500116385,140.87119343
0.086,26.762707924,140.87119381
0.087,27.037164201,140.87119418
0.088,27.323861,140.87119454
0.089,27.623177196,140.8711949
0.09,27.935497226,140.87119524
0.091,28.261216028,140.87119558
0.092,28.600741786,140.8711959
0.093,28.954486046,140.87119622
0.094,29.322866521,140.87119653
0.095,29.706302184,140.87119682
0.096,30.105221481,140.87119711
0.097,30.520059603,140.87119738
0.098,30.951261516,140.87119764
0.099,31.399274989,140.87119789
0.1,31.864555787,140.87119813
0.101,32.347562923,140.87119835
0.102,32.848748645,140.87119857
0.103,33.36856092,140.87119876
0.104,33.907456624,140.87119894
0.105,34.465916195,140.87119911
0.106,35.044437102,140.87119926
0.107,35.643513199,140.87119939
0.108,36.26364372,140.87119951
0.109,36.905325865,140.87119961
0.11,37.569060765,140.8711997
0.111,38.255362664,140.87119976
0.112,38.964758406,140.8711998
0.113,39.697773509,140.87119983
0.114,40.45493327,140.87119984
0.115,41.236765007,140.87119982
0.116,42.043782351,140.87119978
0.117,42.876485724,140.87119972
0.118,43.735394862,140.87119964
0.119,44.621010081,140.87119953
0.12,45.533826389,140.8711994
0.121,46.474327238,140.87119925
0.122,47.443014715,140.87119907
0.123,48.440355558,140.87119886
0.124,49.466816407,140.87119862
0.125,50.522851587,140.87119836
0.126,51.608876498,140.87119807
0.127,52.725314106,140.87119775
0.128,53.872559765,140.8711974
0.129,55.051003281,140.87119701
0.13,56.26102317,140.8711966
0.131,57.502962642,140.87119615
0.132,58.777151041,140.87119566
0.133,60.083902739,140.87119515
0.134,61.423500587,140.87119459
0.135,62.796234622,140.87119401
0.136,64.202356972,140.87119338
0.137,65.642082555,140.87119271
0.138,67.057536993,140.86469566
0.139,67.932648067,140.76205751
0.14,68.63617035,140.56844179
0.141,69.192108857,140.31437186
0.142,69.655239071,140.02002885
0.143,70.062933709,139.69798916
0.144,70.439195468,139.35598764
0.145,70.799463756,138.99867452
0.146,71.153352258,138.62878319
0.147,71.506653203,138.24788938
0.148,71.862511022,137.85691185
0.149,72.222295766,137.45644002
0.15,72.586255055,137.04693383
0.151,72.954087171,136.62882754
0.152,73.325403339,136.20255638
0.153,73.699908292,135.76854824
0.154,74.077455151,135.32720665
0.155,74.457993761,134.8788995
0.156,74.841533363,134.42395224
0.157,75.228018546,133.96265899
0.158,75.617341592,133.49529329
0.159,76.009396757,133.02211128
0.16,76.403991411,132.54336263
0.161,76.800996277,132.05928824
0.162,77.200264631,131.57011986
0.163,77.601649426,131.07608245
0.164,78.004987858,130.57739612
0.165,78.410166625,130.07427302
0.166,78.817028682,129.56691983
0.167,79.225439385,129.05553919
0.168,79.635254517,128.54032868
0.169,80.046319249,128.02148398
0.17,80.458523033,127.4991947
0.171,80.871705847,126.97364776
0.172,81.285702486,126.44503201
0.173,81.700375294,125.91353346
0.174,82.115623674,125.379331
0.175,82.531243696,124.84260716
0.176,82.947085322,124.3035464
0.177,83.363035296,123.7623284
0.178,83.778944145,123.21912999
0.179,84.194664718,122.67412902
0.18,84.610048153,122.12750263
0.181,85.024972946,121.57942489
0.182,85.439323735,121.03006654
0.183,85.852986342,120.47959409
0.184,86.26584227,119.92817056
0.185,86.677756674,119.37595869
0.186,87.088612936,118.82311868
0.187,87.498268697,118.26981212
0.188,87.90664512,117.71619358
0.189,88.313661148,117.16241283
0.19,88.719211154,116.60861454
0.191,89.123168551,116.05494467
0.192,89.525470765,115.50154295
0.193,89.926048821,114.94854342
0.194,90.324771269,114.39607935
0.195,90.721563269,113.84428225
0.196,91.116309118,113.29328294
0.197,91.508979108,112.74320448
0.198,91.899468254,112.19416741
0.199,92.287714847,111.64629052
0.2,92.673675148,111.09968431
0.201,93.057262846,110.55445673
0.202,93.438399572,110.0107172
0.203,93.817040732,109.46856838
0.204,94.193147721,108.92810732
0.205,94.566644074,108.3894296
0.206,94.93746212,107.85262987
0.207,95.305526442,107.31780253
0.208,95.670786952,106.78503909
0.209,96.033167909,106.25443033
0.21,96.392670151,105.72605945
0.211,96.749219387,105.20000833
0.212,97.102763903,104.67635864
0.213,97.453280211,104.15518603
0.214,97.800728018,103.63656375
0.215,98.145054854,103.12056358
0.216,98.486218108,102.60725566
0.217,98.82418934,102.09670737
0.218,99.158929794,101.5889833
0.219,99.490402515,101.08414676
0.22,99.818578874,100.58225815
0.221,100.14342649,100.08337599
0.222,100.46492091,99.587556234
0.223,100.78303898,99.094852114
0.224,101.09775276,98.605315019
0.225,101.40903806,98.118994454
0.226,101.71687139,97.635937985
0.227,102.02122886,97.156191571
0.228,102.32208918,96.679799493
0.229,102.6194422,96.206803318
0.23,102.91327175,95.737242345
0.231,103.20356206,95.271154245
0.232,103.49029979,94.808574773
0.233,103.77347063,94.349538129
0.234,104.05306317,93.894076883
0.235,104.32907192,93.442221388
0.236,104.60149225,92.993999804
0.237,104.87032197,92.549438119
0.238,105.13556421,92.108559682
0.239,105.39721529,91.67138598
0.24,105.65526612,91.237937735
0.241,105.90970541,90.808235319
0.242,106.16053853,90.382297398
0.243,106.40778084,89.960139212
0.244,106.65144165,89.541773399
0.245,106.89151792,89.127211722
0.246,107.1280065,88.716465746
0.247,107.3609141,88.309545648
0.248,107.59025153,87.906459746
0.249,107.81602864,87.507214612
0.25,108.03825007,87.11181578
0.251,108.25692181,86.720268126
0.252,108.47205586,86.332575001
0.253,108.68366003,85.948738818
0.254,108.89174605,85.56876084
0.255,109.0963249,85.192641213
0.256,109.29741677,84.820378367
0.257,109.49503631,84.451969125
0.258,109.68919222,84.087409939
0.259,109.87989648,83.726696816
0.26,110.06717255,83.369823959
0.261,110.25103531,83.016784398
0.262,110.43149548,82.667570972
0.263,110.60856386,82.322176382
0.264,110.78224688,81.980593715
0.265,110.95255833,81.642815754
0.266,111.11950457,81.30883541
0.267,111.28308548,80.978646704
0.268,111.44331763,80.652243502
0.269,111.60021964,80.329618002
0.27,111.75378987,80.010763403
0.271,111.90402438,79.695674814
0.272,112.05093475,79.384347432
0.273,112.19453404,79.076775452
0.274,112.33483883,78.772952618
0.275,112.47186795,78.472870857
0.276,112.60561556,78.176523943
0.277,112.73609083,77.883905899
0.278,112.86329647,77.595011393
0.279,112.9872341,77.3098358
0.28,113.10790361,77.028375665
0.281,113.22530321,76.750628358
0.282,113.33943868,76.476591664
0.283,113.45030362,76.206264411
0.284,113.55790338,75.939645985
0.285,113.66224823,75.676734766
0.286,113.76333289,75.417530184
0.287,113.86115239,75.162032722
0.288,113.95569802,74.910244532
0.289,114.04695511,74.662169525
0.29,114.13492646,74.417812137
0.291,114.21960942,74.177176688
0.292,114.30099545,73.940268433
0.293,114.37906836,73.70709459
0.294,114.4538127,73.477663879
0.295,114.52520608,73.251987406
0.296,114.59324527,73.030076575
0.297,114.65791062,72.811944034
0.298,114.71918483,72.597603717
0.299,114.77702642,72.387073152
0.3,114.83143896,72.180370098
0.301,114.88239815,71.977511784
0.302,114.92987753,71.778518814
0.303,114.97386494,71.583411131
0.304,115.01429363,71.392213929
0.305,115.05112945,71.204956568
0.306,115.08436807,71.021666452
0.307,115.11395929,70.842373407
0.308,115.13986159,70.667110669
0.309,115.16204085,70.495912938
0.31,115.18046944,70.328815036
0.311,115.19504843,70.165859232
0.312,115.20573088,70.007091879
0.313,115.21244558,69.852563047
0.314,115.21517331,69.702322132
0.315,115.21384404,69.55642039
0.316,115.20836034,69.414916968
0.317,115.19866742,69.277872865
0.318,115.1846781,69.145353266
0.319,115.16628745,69.017430234
0.32,115.14346082,68.894175682
0.321,115.11612264,68.775661006
0.322,115.08412856,68.661968839
0.323,115.0474106,68.553184069
0.324,115.00589063,68.449392603
0.325,114.95947511,68.350682841
0.326,114.90801527,68.257152382
0.327,114.85142789,68.168901692
0.328,114.78961924,68.086032477
0.329,114.7224713,68.008650052
0.33,114.64981806,67.936869187
0.331,114.57149383,67.870815311
0.332,114.4874102,67.810613529
0.333,114.39743385,67.756391817
0.334,114.30139229,67.708286292
0.335,114.19913929,67.666437909
0.336,114.09053733,67.630990542
0.337,113.97539342,67.602094634
0.338,113.85353393,67.579904983
0.339,113.72474764,67.564577119
0.34,113.58874469,67.556249694
0.341,113.43580999,67.554719453
0.342,113.2002915,67.554718174
0.343,112.91140135,67.554716901
0.344,112.571601,67.554715635
0.345,112.18702483,67.554714379
0.346,111.76274689,67.554713132
0.347,111.30306713,67.554711896
0.348,110.81222121,67.554710672
0.349,110.29446144,67.554709461
0.35,109.75384718,67.554708262
0.351,109.1940498,67.554707078
0.352,108.61807674,67.554705907
0.353,108.02836405,67.554704752
0.354,107.4269133,67.55470361
0.355,106.81526884,67.554702485
0.356,106.19472915,67.554701374
0.357,105.56631299,67.554700279
0.358,104.93072533,67.5546992
0.359,104.28862169,67.554698137
0.36,103.6404874,67.55469709
0.361,102.98658683,67.554696059
0.362,102.32704828,67.554695045
0.363,101.66199858,67.554694047
0.364,100.99148724,67.554693066
0.365,100.31557045,67.554692102
0.366,99.634292188,67.554691155
0.367,98.947688449,67.554690225
0.368,98.255738899,67.554689313
0.369,97.558427944,67.554688418
0.37,96.855716704,67.55468754
0.371,96.147672803,67.55468668
0.372,95.434379437,67.554685839
0.373,94.715886472,67.554685015
0.374,93.992274031,67.554684209
0.375,93.263750546,67.554683422
0.376,92.530441036,67.554682653
0.377,91.79258562,67.554681903
0.378,91.050323413,67.554681171
0.379,90.303862878,67.554680458
0.38,89.553378715,67.554679764
0.381,88.799033026,67.554679089
0.382,88.041053176,67.554678434
0.383,87.279620016,67.554677797
0.384,86.515064449,67.55467718
0.385,85.747592396,67.554676582
0.386,84.97741552,67.554676003
0.387,84.2048422,67.554675444
0.388,83.430114003,67.554674905
0.389,82.653446141,67.554674385
0.39,81.875038066,67.554673885
0.391,81.095124185,67.554673404
0.392,80.313932737,67.554672943
0.393,79.531701788,67.554672502
0.394,78.748633204,67.554672081
0.395,77.964808534,67.55467168
0.396,77.180461902,67.554671298
0.397,76.395737144,67.554670937
0.398,75.610878704,67.554670595
0.399,74.826133842,67.554670273
0.4,74.041692097,67.554669971
0.401,73.25768903,67.554669689
0.402,72.474300023,67.554669426
0.403,71.691621068,67.554669184
0.404,70.909835641,67.554668961
0.405,70.129057949,67.554668758
0.406,69.349397699,67.554668575
0.407,68.571179917,67.554668411
0.408,67.79449283,67.554668267
0.409,67.019471998,67.554668143
0.41,66.246238358,67.554668038
0.411,65.474904015,67.554667953
0.412,64.705583017,67.554667887
0.413,63.938457684,67.554667841
0.414,63.173621187,67.554667814
0.415,62.411202885,67.554667806
0.416,61.65127441,67.554667818
0.417,60.893867462,67.554667848
0.418,60.139190285,67.554667898
0.419,59.387366122,67.554667967
0.42,58.638512121,67.554668055
0.421,57.892689301,67.554668161
0.422,57.150094348,67.554668287
0.423,56.410793152,67.554668431
0.424,55.674855982,67.554668593
0.425,54.942431026,67.554668774
0.426,54.21363443,67.554668974
0.427,53.488566446,67.554669192
0.428,52.767273199,67.554669428
0.429,52.049791957,67.554669682
0.43,51.336336389,67.554669954
0.431,50.627008123,67.554670245
0.432,49.921807195,67.554670553
0.433,49.220920501,67.554670878
0.434,48.524423679,67.554671221
0.435,47.832388871,67.554671582
0.436,47.144876703,67.55467196
0.437,46.462014553,67.554672355
0.438,45.783830568,67.554672767
0.439,45.11040211,67.554673196
0.44,44.441792208,67.554673642
0.441,43.77808772,67.554674105
0.442,43.119372913,67.554674584
0.443,42.46569988,67.55467508
0.444,41.817056638,67.554675592
0.445,41.173598831,67.55467612
0.446,40.535450743,67.554676665
0.447,39.902632921,67.554677225
0.448,39.275216731,67.554677801
0.449,38.65331243,67.554678392
0.45,38.036964011,67.554678999
0.451,37.426204861,67.554679621
0.452,36.821153882,67.554680258
0.453,36.221882386,67.554680911
0.454,35.628441943,67.554681578
0.455,35.040896473,67.55468226
0.456,34.459316438,67.554682956
0.457,33.883756141,67.554683667
0.458,33.314272903,67.554684392
0.459,32.750908147,67.554685131
0.46,32.193732043,67.554685884
0.461,31.642775515,67.55468665
0.462,31.098111608,67.554687431
0.463,30.559806897,67.554688224
0.464,30.027874149,67.554689031
0.465,29.50234364,67.554689851
0.466,28.983231917,67.554690683
0.467,28.470576533,67.554691529
0.468,27.964401975,67.554692387
0.469,27.464711572,67.554693257
0.47,26.971553537,67.55469414
0.471,26.484936911,67.554695034
0.472,26.00486264,67.55469594
0.473,25.531377636,67.554696858
0.474,25.064473731,67.554697788
0.475,24.604150448,67.554698729
0.476,24.150403635,67.554699681
0.477,23.703216884,67.554700644
0.478,23.262557031,67.554701617
0.479,22.828384744,67.554702602
0.48,22.400640056,67.554703597
0.481,21.979276516,67.554704602
0.482,21.564257188,67.554705617
0.483,21.155561626,67.554706642
0.484,20.753171085,67.554707677
0.485,20.357086343,67.554708722
0.486,19.967290241,67.554709776
0.487,19.583798667,67.554710839
0.488,19.20655428,67.554711911
0.489,18.835488182,67.554712993
0.49,18.470543673,67.554714083
0.491,18.114121303,67.554941242
0.492,17.921147188,67.574218154
0.493,17.72967385,67.618848951
0.494,17.550902434,67.68680349
0.495,17.383519639,67.775802395
0.496,17.223359436,67.884147097
0.497,17.06865978,68.010510809
0.498,16.919279404,68.153662915
0.499,16.775200219,68.312408042
0.5,16.636051628,68.48562455
0.501,16.501225086,68.672299453
0.502,16.370059874,68.871538201
0.503,16.241924337,69.082558957
0.504,16.11625855,69.304681223
0.505,15.992582437,69.537312947
0.506,15.870607872,69.779925401
0.507,15.750100199,70.03203994
0.508,15.630992793,70.293208405
0.509,15.513283363,70.562999135
0.51,15.39703003,70.840989047
0.511,15.282303136,71.126760107
0.512,15.169165966,71.419899712
0.513,15.057687177,71.719999727
0.514,14.947893422,72.026661136
0.515,14.839802904,72.339495182
0.516,14.733448214,72.65812243
0.517,14.628846046,72.982173644
0.518,14.525988421,73.311291538
0.519,14.424864106,73.645132603
0.52,14.325470653,73.983365714
0.521,14.227847034,74.325666893
0.522,14.132029685,74.671716403
0.523,14.037936328,75.021213737
0.524,13.945608057,75.373866899
0.525,13.855078299,75.729389495
0.526,13.766379545,76.087498301
0.527,13.679514854,76.447919194
0.528,13.594464326,76.810388385
0.529,13.511279563,77.174647826
0.53,13.429895165,77.540448668
0.531,13.350383457,77.907550767
0.532,13.272857298,78.275703646
0.533,13.197291132,78.644664174
0.534,13.123666347,79.014201988
0.535,13.05189544,79.384100359
0.536,12.982013856,79.754150767
0.537,12.913911259,80.124158545
0.538,12.847502986,80.493952122
0.539,12.782882735,80.863353707
0.54,12.720002784,81.2321945
0.541,12.658797261,81.600321087
0.542,12.599212008,81.967588067
0.543,12.541230733,82.333859532
0.544,12.4847991,82.699012354
0.545,12.430004303,83.062915833
0.546,12.376837021,83.425444215
0.547,12.325248286,83.786477953
0.548,12.275177641,84.145910579
0.549,12.226631872,84.503638931
0.55,12.179589944,84.859565089
0.551,12.134051232,85.213594784
0.552,12.090075565,85.565629403
0.553,12.047685909,85.915568737
0.554,12.006850297,86.263317599
0.555,11.967548728,86.60878708
0.556,11.929786616,86.951889956
0.557,11.893581962,87.29253937
0.558,11.858925598,87.630650414
0.559,11.825788573,87.966144061
0.56,11.794165139,88.298944176
0.561,11.764035505,88.628978632
0.562,11.735386452,88.956178897
0.563,11.70820726,89.280479277
0.564,11.682481544,89.601817362
0.565,11.658187865,89.92013465
0.566,11.635302515,90.235376803
0.567,11.613801232,90.547493617
0.568,11.593659581,90.856438917
0.569,11.574852831,91.162170451
0.57,11.557355663,91.46464983
0.571,11.541142153,91.763842481
0.572,11.526185598,92.059717614
0.573,11.512458316,92.352248227
0.574,11.499931625,92.641411109
0.575,11.488575875,92.927186854
0.576,11.478360458,93.209559861
0.577,11.469253764,93.488518344
0.578,11.46122318,93.764054348
0.579,11.454235182,94.036163751
0.58,11.448255529,94.304846248
0.581,11.443249457,94.570105306
0.582,11.43918193,94.831948098
0.583,11.43601788,95.090385396
0.584,11.433722368,95.345431455
0.585,11.432260693,95.597103874
0.586,11.43159854,95.845423458
0.587,11.431702118,96.090414051
0.588,11.432538274,96.33210237
0.589,11.43407459,96.570517825
0.59,11.436279455,96.805692339
0.591,11.439122126,97.03766016
0.592,11.442572782,97.266457681
0.593,11.446602579,97.492123246
0.594,11.451183691,97.714696969
0.595,11.45628934,97.934220549
0.596,11.461893808,98.150737085
0.597,11.467972446,98.364290903
0.598,11.47450166,98.574927387
0.599,11.481458901,98.782692814
0.6,11.48882264,98.987634204
0.601,11.496572337,99.189799168
0.602,11.504688409,99.389235778
0.603,11.513152195,99.585992437
0.604,11.521945918,99.780117759
0.605,11.531052653,99.971660464
0.606,11.540456286,100.16066927
0.607,11.550141484,100.3471928
0.608,11.560093661,100.53127951
0.609,11.570298943,100.71297759
0.61,11.580744143,100.8923349
0.611,11.591416728,101.06939889
0.612,11.60230479,101.24421659
0.613,11.613397022,101.41683447
0.614,11.624682687,101.58729849
0.615,11.636151596,101.75565396
0.616,11.647794082,101.92194557
0.617,11.659600973,102.08621733
0.618,11.671563574,102.24851252
0.619,11.683673639,102.40887369
0.62,11.695923353,102.56734265
0.621,11.708305307,102.72396039
0.622,11.720812479,102.87876712
0.623,11.733438214,103.03180226
0.624,11.746176205,103.18310437
0.625,11.759020471,103.33271119
0.626,11.771965342,103.48065965
0.627,11.78500544,103.62698582
0.628,11.798135661,103.77172494
0.629,11.811351165,103.91491141
