time,pressure,volume
0,17.191567973,140.871151
0.001,17.228678325,140.87115167
0.002,17.234993711,140.87115233
0.003,17.238200647,140.871153
0.004,17.237950827,140.87115366
0.005,17.235936481,140.87115433
0.006,17.232758817,140.871155
0.007,17.22898451,140.87115566
0.008,17.225377577,140.87115633
0.009,17.222654717,140.871157
0.01,17.221316327,140.87115767
0.011,17.221549171,140.87115834
0.012,17.223210966,140.871159
0.013,17.225909891,140.87115967
0.014,17.229143655,140.87116034
0.015,17.2324084,140.87116101
0.016,17.235304434,140.87116168
0.017,17.237606916,140.87116235
0.018,17.239317743,140.87116303
0.019,17.240608745,140.8711637
0.02,17.241728084,140.87116437
0.021,17.242915575,140.87116504
0.022,17.244344382,140.87116571
0.023,17.24610191,140.87116639
0.024,17.248204526,140.87116706
0.025,17.250629363,140.87116773
0.026,17.253347348,140.87116841
0.027,17.256347228,140.87116908
0.028,17.259646114,140.87116976
0.029,17.263287564,140.87117043
0.03,17.267339823,140.87117111
0.031,17.271886581,140.87117178
0.032,17.277023396,140.87117246
0.033,17.282855706,140.87117314
0.034,17.289494071,140.87117381
0.035,17.297052339,140.87117449
0.036,17.305650793,140.87117517
0.037,17.315419419,140.87117584
0.038,17.326497492,140.87117652
0.039,17.339033017,140.8711772
0.04,17.35318197,140.87117787
0.041,17.369106629,140.87117855
0.042,17.386976992,140.87117923
0.043,17.406969619,140.8711799
0.044,17.429267885,140.87118058
0.045,17.454061083,140.87118126
0.046,17.48154326,140.87118193
0.047,17.5119134,140.87118261
0.048,17.545378102,140.87118328
0.049,17.582150362,140.87118395
0.05,17.622447796,140.87118463
0.051,17.666494177,140.8711853
0.052,17.714517754,140.87118597
0.053,17.766750787,140.87118664
0.054,17.823434536,140.8711873
0.055,17.884819488,140.87118797
0.056,17.95116559,140.87118863
0.057,18.022742372,140.87118929
0.058,18.099826416,140.87118995
0.059,18.182702702,140.87119061
0.06,18.271663649,140.87119127
0.061,18.367012017,140.87119192
0.062,18.469062716,140.87119257
0.063,18.578141787,140.87119322
0.064,18.694595009,140.87119386
0.065,18.818776939,140.8711945
0.066,18.951062844,140.87119514
0.067,19.091842718,140.87119577
0.068,19.241520097,140.8711964
0.069,19.400512475,140.87119703
0.07,19.569244999,140.87119765
0.071,19.748155534,140.87119826
0.072,19.93769779,140.87119887
0.073,20.138331289,140.87119947
0.074,20.350532016,140.87120007
0.075,20.574776813,140.87120066
0.076,20.81155302,140.87120125
0.077,21.06134534,140.87120183
0.078,21.324643987,140.8712024
0.079,21.601952805,140.87120296
0.08,21.893802493,140.87120352
0.081,22.20074338,140.87120406
0.082,22.523344495,140.8712046
0.083,22.862178314,140.87120513
0.084,23.217828041,140.87120565
0.085,23.590893219,140.87120615
0.086,23.981978204,140.87120665
0.087,24.391698975,140.87120714
0.088,24.82066456,140.87120761
0.089,25.269482626,140.87120807
0.09,25.738792176,140.87120852
0.091,26.22924364,140.87120895
0.092,26.741513168,140.87120937
0.093,27.27627702,140.87120978
0.094,27.834190508,140.87121017
0.095,28.415908857,140.87121054
0.096,29.02213173,140.8712109
0.097,29.653575305,140.87121124
0.098,30.310960226,140.87121156
0.099,30.994976448,140.87121186
0.1,31.706364845,140.87121214
0.101,32.445820068,140.8712124
0.102,33.214054041,140.87121265
0.103,34.011723621,140.87121286
0.104,34.839557408,140.87121306
0.105,35.698236338,140.87121323
0.106,36.588406347,140.87121338
0.107,37.510706346,140.87121351
0.108,38.465808837,140.8712136
0.109,39.454329074,140.87121367
0.11,40.476861747,140.87121371
0.111,41.53400612,140.87121373
0.112,42.626322505,140.87121371
0.113,43.754351688,140.87121366
0.114,44.918602963,140.87121358
0.115,46.119598699,140.87121347
0.116,47.357812888,140.87121332
0.117,48.633681901,140.87121314
0.118,49.947630007,140.87121293
0.119,51.300032431,140.87121267
0.12,52.691240718,140.87121238
0.121,54.121577873,140.87121205
0.122,55.591308874,140.87121168
0.123,57.100681613,140.87121127
0.124,58.649895919,140.87121082
0.125,60.239141978,140.87121032
0.126,61.868551415,140.87120978
0.127,63.538217657,140.87120919
0.128,65.248191875,140.87120856
0.129,66.998503217,140.87120788
0.13,68.169340424,140.7845788
0.131,69.045260811,140.58156634
0.132,69.716995388,140.30229939
0.133,70.256442327,139.97444838
0.134,70.719096671,139.61476196
0.135,71.139446573,139.23311306
0.136,71.538855061,138.83516919
0.137,71.93028931,138.42406482
0.138,72.321306973,138.00146106
0.139,72.715914029,137.56821586
0.14,73.11574231,137.12481265
0.141,73.520967729,136.67161747
0.142,73.93101306,136.20901048
0.143,74.345107265,135.73742539
0.144,74.762618984,135.25733431
0.145,75.183143555,134.76921656
0.146,75.606481434,134.27352931
0.147,76.03252719,133.77069326
0.148,76.4611236,133.26110071
0.149,76.89206351,132.74512579
0.15,77.325139044,132.22312733
0.151,77.760109417,131.69545451
0.152,78.196719543,131.16244994
0.153,78.634794458,130.62444342
0.154,79.07412749,130.08175427
0.155,79.514500563,129.53469334
0.156,79.955741271,128.98356155
0.157,80.397652184,128.42865012
0.158,80.840025996,127.87024622
0.159,81.282693813,127.30862694
0.16,81.725503379,126.74405932
0.161,82.168352909,126.17679622
0.162,82.611087735,125.60708013
0.163,83.053537996,125.0351484
0.164,83.4955416,124.46123381
0.165,83.936906232,123.88556763
0.166,84.377491789,123.30837544
0.167,84.817198807,122.72987318
0.168,85.255888606,122.15026731
0.169,85.693384349,121.56976534
0.17,86.129582929,120.98856765
0.171,86.564385055,120.40686595
0.172,86.997681111,119.82484272
0.173,87.429315677,119.24268194
0.174,87.859139194,118.66056558
0.175,88.287077491,118.07867001
0.176,88.713050901,117.49715958
0.177,89.136964329,116.91619322
0.178,89.558732576,116.33592739
0.179,89.97835767,115.7564993
0.18,90.395657316,115.1780504
0.181,90.810533342,114.60072592
0.182,91.222907685,114.02466208
0.183,91.63274976,113.44998753
0.184,92.03993831,112.87682997
0.185,92.444445005,112.30531014
0.186,92.846203603,111.73554297
0.187,93.245176658,111.1676363
0.188,93.641250951,110.60169951
0.189,94.034382748,110.03783847
0.19,94.424522865,109.47615282
0.191,94.81157644,108.91674415
0.192,95.195501451,108.35970891
0.193,95.576186755,107.80514704
0.194,95.953629829,107.25315081
0.195,96.327784784,106.70380766
0.196,96.69860973,106.15720116
0.197,97.066084383,105.61340962
0.198,97.430158671,105.07250861
0.199,97.790769601,104.53457369
0.2,98.147893351,103.99967781
0.201,98.501500539,103.46788889
0.202,98.851564651,102.93927172
0.203,99.198053322,102.4138886
0.204,99.540938148,101.89179926
0.205,99.880194851,101.37306069
0.206,100.21580153,100.85772699
0.207,100.54773971,100.3458494
0.208,100.87599229,99.837476235
0.209,101.20054042,99.332653452
0.21,101.52136711,98.831424761
0.211,101.83845955,98.333831401
0.212,102.15180832,97.839911954
0.213,102.46140833,97.349702075
0.214,102.76725432,96.863234699
0.215,103.06934331,96.380540165
0.216,103.36767265,95.901646319
0.217,103.66223892,95.426578964
0.218,103.95304058,94.95536184
0.219,104.24007753,94.488016701
0.22,104.52335169,94.02456327
0.221,104.80286772,93.565019129
0.222,105.07863403,93.109399509
0.223,105.35066266,92.657717071
0.224,105.61896457,92.209982081
0.225,105.88354536,91.766203333
0.226,106.14440771,91.326388818
0.227,106.40155976,90.890545344
0.228,106.65501893,90.458677555
0.229,106.9048008,90.030787887
0.23,107.15091431,89.60687777
0.231,107.39337125,89.186947599
0.232,107.6321857,88.770996478
0.233,107.8673719,88.359022303
0.234,108.09894306,87.951021963
0.235,108.32691469,87.546991349
0.236,108.55130906,87.146924647
0.237,108.77214445,86.750814605
0.238,108.9894351,86.358653373
0.239,109.20319857,85.970432348
0.24,109.41344928,85.586142373
0.241,109.62020638,85.205773559
0.242,109.82349534,84.829314492
0.243,110.02333293,84.45675291
0.244,110.21973206,84.088076785
0.245,110.41271115,83.723273696
0.246,110.60228807,83.362330661
0.247,110.78847512,83.005234939
0.248,110.97128878,82.651973683
0.249,111.15074737,82.302533629
0.25,111.32687097,81.956900947
0.251,111.49968765,81.615060422
0.252,111.66921777,81.276996029
0.253,111.83548341,80.94269129
0.254,111.99850337,80.612129297
0.255,112.15828161,80.285294657
0.256,112.31483557,79.962172384
0.257,112.46817765,79.642747639
0.258,112.61831677,79.327006662
0.259,112.7652723,79.014935342
0.26,112.90904665,78.706520656
0.261,113.04965469,78.401750352
0.262,113.18711362,78.100611335
0.263,113.32143342,77.803091303
0.264,113.45262713,77.50917784
0.265,113.58069823,77.218859883
0.266,113.7056613,76.932126401
0.267,113.82751754,76.648967387
0.268,113.94628482,76.369372855
0.269,114.06196483,76.093333155
0.27,114.17455333,75.820841138
0.271,114.28405811,75.551889739
0.272,114.39048146,75.286473247
0.273,114.49384968,75.024583839
0.274,114.59414821,74.766215586
0.275,114.6913605,74.511366165
0.276,114.78550151,74.260032955
0.277,114.87656808,74.012213583
0.278,114.96454695,73.767908015
0.279,115.04941797,73.527119052
0.28,115.13118171,73.28985052
0.281,115.20983309,73.05610624
0.282,115.28535828,72.825891904
0.283,115.3577476,72.599214534
0.284,115.42698005,72.376082794
0.285,115.49303076,72.156508503
0.286,115.55589816,71.94050342
0.287,115.61555956,71.728080457
0.288,115.67200582,71.519253587
0.289,115.72521468,71.314037933
0.29,115.77517511,71.112449639
0.291,115.82188318,70.914503848
0.292,115.86531911,70.720216549
0.293,115.90544739,70.529606938
0.294,115.94224921,70.342695118
0.295,115.9756552,70.159507064
0.296,116.00563481,69.980072057
0.297,116.03215379,69.804420414
0.298,116.05518387,69.632583858
0.299,116.07470276,69.464593855
0.3,116.0906339,69.300487165
0.301,116.10296114,69.140301538
0.302,116.11161886,68.984077652
0.303,116.11655027,68.83186015
0.304,116.11772002,68.683694341
0.305,116.11505493,68.539629217
0.306,116.10845372,68.399721411
0.307,116.09782542,68.264034258
0.308,116.08312228,68.13263263
0.309,116.06428632,68.005581243
0.31,116.04123548,67.88294846
0.311,116.01387839,67.764807683
0.312,115.98213574,67.651234894
0.313,115.94592737,67.54230925
0.314,115.90514694,67.438114672
0.315,115.85969502,67.338739672
0.316,115.80950163,67.244273691
0.317,115.75440309,67.154815009
0.318,115.69426015,67.070470976
0.319,115.62895894,66.99135361
0.32,115.55841869,66.917575104
0.321,115.48253506,66.84924766
0.322,115.4011504,66.786491022
0.323,115.31409115,66.729435042
0.324,115.22119531,66.678216647
0.325,115.12225242,66.632984079
0.326,115.01710334,66.593893049
0.327,114.90557167,66.56110268
0.328,114.78747597,66.534778071
0.329,114.66259669,66.515088901
0.33,114.53065908,66.502207797
0.331,114.39119597,66.496275482
0.332,114.20823107,66.495883359
0.333,113.95487835,66.495882045
0.334,113.64469844,66.495880738
0.335,113.28345156,66.49587944
0.336,112.87641456,66.495878151
0.337,112.42807315,66.495876872
0.338,111.94244006,66.495875606
0.339,111.42343886,66.495874351
0.34,110.87503137,66.495873111
0.341,110.300943,66.495871884
0.342,109.70453513,66.495870672
0.343,109.08877764,66.495869475
0.344,108.45610489,66.495868294
0.345,107.8085702,66.495867129
0.346,107.14794662,66.49586598
0.347,106.4757169,66.495864848
0.348,105.79320205,66.495863733
0.349,105.10155156,66.495862636
0.35,104.40167869,66.495861556
0.351,103.69433632,66.495860494
0.352,102.98015136,66.49585945
0.353,102.25957139,66.495858424
0.354,101.53299032,66.495857416
0.355,100.8007162,66.495856426
0.356,100.06297318,66.495855456
0.357,99.319916141,66.495854504
0.358,98.57164893,66.49585357
0.359,97.818333181,66.495852656
0.36,97.060074616,66.495851761
0.361,96.296947971,66.495850885
0.362,95.529063235,66.495850029
0.363,94.756470161,66.495849192
0.364,93.979270143,66.495848374
0.365,93.197597096,66.495847577
0.366,92.411569432,66.495846799
0.367,91.621287905,66.495846042
0.368,90.82686572,66.495845304
0.369,90.028419386,66.495844587
0.37,89.226130315,66.49584389
0.371,88.420223148,66.495843213
0.372,87.610924621,66.495842557
0.373,86.798428009,66.495841922
0.374,85.982974632,66.495841307
0.375,85.164760383,66.495840713
0.376,84.34395671,66.495840139
0.377,83.520818619,66.495839587
0.378,82.695609541,66.495839056
0.379,81.868519513,66.495838545
0.38,81.039731429,66.495838056
0.381,80.209475794,66.495837588
0.382,79.377963059,66.495837141
0.383,78.545495272,66.495836715
0.384,77.712259947,66.49583631
0.385,76.878340841,66.495835926
0.386,76.043995802,66.495835564
0.387,75.209557502,66.495835223
0.388,74.375259987,66.495834903
0.389,73.541281894,66.495834604
0.39,72.707787079,66.495834327
0.391,71.874998332,66.49583407
0.392,71.043072219,66.495833835
0.393,70.21230685,66.495833621
0.394,69.382852048,66.495833428
0.395,68.554912889,66.495833256
0.396,67.728674145,66.495833105
0.397,66.904271344,66.495832975
0.398,66.081904614,66.495832866
0.399,65.261761908,66.495832778
0.4,64.443950874,66.495832711
0.401,63.628627853,66.495832664
0.402,62.815945867,66.495832638
0.403,62.005967884,66.495832633
0.404,61.198924589,66.495832648
0.405,60.394968667,66.495832683
0.406,59.594203189,66.495832739
0.407,58.796746337,66.495832815
0.408,58.002739918,66.495832912
0.409,57.212366746,66.495833028
0.41,56.425700494,66.495833165
0.411,55.64287881,66.495833321
0.412,54.864049028,66.495833497
0.413,54.089327207,66.495833693
0.414,53.318849921,66.495833908
0.415,52.552665532,66.495834143
0.416,51.790947609,66.495834397
0.417,51.033824758,66.495834671
0.418,50.281371927,66.495834963
0.419,49.533688009,66.495835274
0.42,48.790903438,66.495835605
0.421,48.053097358,66.495835954
0.422,47.320339987,66.495836321
0.423,46.592738644,66.495836707
0.424,45.870495302,66.495837111
0.425,45.153705605,66.495837534
0.426,44.442437648,66.495837974
0.427,43.736793046,66.495838432
0.428,43.036880741,66.495838908
0.429,42.342732965,66.495839401
0.43,41.654467587,66.495839912
0.431,40.97210673,66.49584044
0.432,40.295767725,66.495840986
0.433,39.625475416,66.495841548
0.434,38.961326532,66.495842126
0.435,38.303301966,66.495842722
0.436,37.651498449,66.495843334
0.437,37.005948636,66.495843962
0.438,36.366709329,66.495844606
0.439,35.733803257,66.495845266
0.44,35.107308623,66.495845942
0.441,34.487302897,66.495846633
0.442,33.873845227,66.49584734
0.443,33.266945903,66.495848062
0.444,32.666628663,66.4958488
0.445,32.072984426,66.495849552
0.446,31.486071861,66.495850318
0.447,30.905884448,66.4958511
0.448,30.332480932,66.495851895
0.449,29.76593868,66.495852705
0.45,29.206322439,66.495853529
0.451,28.653656078,66.495854367
0.452,28.107960537,66.495855218
0.453,27.569265669,66.495856083
0.454,27.037611742,66.49585696
0.455,26.513014785,66.495857851
0.456,25.995490833,66.495858755
0.457,25.485056057,66.495859672
0.458,24.981713535,66.495860601
0.459,24.48544411,66.495861542
0.46,23.996264925,66.495862496
0.461,23.514186601,66.495863461
0.462,23.039179189,66.495864438
0.463,22.571201858,66.495865427
0.464,22.110249847,66.495866427
0.465,21.656301152,66.495867438
0.466,21.209338826,66.49586846
0.467,20.769358708,66.495869493
0.468,20.336331125,66.495870537
0.469,19.910248841,66.495871591
0.47,19.491092531,66.495872655
0.471,19.078823318,66.495873729
0.472,18.673424155,66.495874814
0.473,18.2748544,66.495875908
0.474,17.883086006,66.495877011
0.475,17.498077291,66.495878124
0.476,17.119763889,66.495879246
0.477,16.752567951,66.4963109
0.478,16.554063975,66.517036635
0.479,16.356225181,66.564606394
0.48,16.171881964,66.637126177
0.481,15.999811556,66.732386988
0.482,15.835539964,66.848771839
0.483,15.677070247,66.985054484
0.484,15.524232185,67.140098989
0.485,15.377109689,67.312781028
0.486,15.235443338,67.502019901
0.487,15.09869835,67.706819988
0.488,14.96613607,67.926297882
0.489,14.837036841,68.15968662
0.49,14.710803363,68.40631807
0.491,14.586929998,68.665607791
0.492,14.46501183,68.937040858
0.493,14.344742311,69.220157429
0.494,14.225939523,69.51453574
0.495,14.108540861,69.819775252
0.496,13.99250818,70.135489111
0.497,13.877856932,70.461299701
0.498,13.76465384,70.796829358
0.499,13.653019822,71.141694954
0.5,13.54304681,71.495507518
0.501,13.434786885,71.85787971
0.502,13.328360739,72.228417177
0.503,13.223765887,72.606731446
0.504,13.121031565,72.992439048
0.505,13.020208402,73.385159569
0.506,12.921259709,73.784521523
0.507,12.824220316,74.190160421
0.508,12.729054173,74.601720754
0.509,12.635821817,75.018852847
0.51,12.54449803,75.441211242
0.511,12.455144675,75.868454792
0.512,12.367758824,76.300246995
0.513,12.282375142,76.736256187
0.514,12.198846244,77.176168094
0.515,12.117298256,77.619673578
0.516,12.037811643,78.066454077
0.517,11.960496023,78.516181911
0.518,11.885233687,78.968546812
0.519,11.812219283,79.423233611
0.52,11.741633524,79.879903847
0.521,11.673637832,80.33820371
0.522,11.608289665,80.797778088
0.523,11.545590293,81.25827467
0.524,11.485516986,81.719352837
0.525,11.428027342,82.180682712
0.526,11.373007358,82.641953828
0.527,11.320347766,83.102877795
0.528,11.269987124,83.563181465
0.529,11.221851485,84.022606888
0.53,11.175898734,84.480906381
0.531,11.132037528,84.937849221
0.532,11.090186124,85.393220134
0.533,11.050309517,85.846814438
0.534,11.012394699,86.298434253
0.535,10.976437129,86.747885454
0.536,10.942408527,87.194981278
0.537,10.910294784,87.63954081
0.538,10.880077133,88.081388961
0.539,10.851741298,88.520356053
0.54,10.825271149,88.956277613
0.541,10.800640125,89.38899542
0.542,10.777811974,89.818358725
0.543,10.756744413,90.244225013
0.544,10.737391933,90.666460327
0.545,10.719707777,91.08493931
0.546,10.703644608,91.499545108
0.547,10.689155099,91.910169204
0.548,10.67619201,92.316711227
0.549,10.664708043,92.719078778
0.55,10.65465567,93.117187284
0.551,10.645987071,93.510959868
0.552,10.638653928,93.900327239
0.553,10.632607081,94.285227636
0.554,10.627796217,94.665606807
0.555,10.624169737,95.041418018
0.556,10.621674854,95.412622062
0.557,10.620257665,95.779187246
0.558,10.619863494,96.141089352
0.559,10.620437311,96.498311546
0.56,10.621924133,96.850844227
0.561,10.624269485,97.198684828
0.562,10.627419877,97.541837557
0.563,10.631323258,97.880313081
0.564,10.635929428,98.214128159
0.565,10.641190358,98.543305245
0.566,10.647060356,98.86787206
0.567,10.653496138,99.187861171
0.568,10.660456887,99.503309566
0.569,10.667904268,99.814258235
0.57,10.675802396,100.12075177
0.571,10.684117772,100.42283795
0.572,10.692819207,100.72056742
0.573,10.701877748,101.01399326
0.574,10.711266568,101.30317073
0.575,10.72096084,101.5881569
0.576,10.730937593,101.86901039
0.577,10.741175572,102.14579111
0.578,10.751655104,102.41856001
0.579,10.762357972,102.68737888
0.58,10.773267297,102.95231013
0.581,10.784367416,103.21341665
0.582,10.795643765,103.47076163
0.583,10.807082777,103.72440842
0.584,10.818671775,103.97442042
0.585,10.830398891,104.22086099
0.586,10.842252993,104.46379329
0.587,10.854223629,104.7032803
0.588,10.866300976,104.93938463
0.589,10.878475812,105.17216855
0.59,10.890739485,105.40169386
0.591,10.903083895,105.62802185
0.592,10.915501472,105.85121326
0.593,10.92798516,106.07132821
0.594,10.940528399,106.28842615
0.595,10.953125107,106.50256583
0.596,10.965769657,106.71380524
0.597,10.978456856,106.92220159
0.598,10.991181921,107.12781126
0.599,11.003940455,107.33068979
0.6,11.01672842,107.53089184
0.601,11.029542113,107.72847116
0.602,11.042378143,107.92348058
0.603,11.055233404,108.11597201
0.604,11.068105058,108.30599642
0.605,11.080990508,108.49360381
0.606,11.093887385,108.67884324
0.607,11.106793526,108.86176278
0.608,11.119706961,109.04240957
0.609,11.132625895,109.22082977
0.61,11.145548695,109.39706859
0.611,11.15847388,109.57117028
0.612,11.171400104,109.74317814
0.613,11.184326148,109.91313453
0.614,11.197250905,110.08108089
0.615,11.210173374,110.24705772
0.616,11.223092647,110.41110461
0.617,11.236007899,110.57326026
0.618,11.248918382,110.73356249
0.619,11.261823415,110.89204823
0.62,11.274722376,111.04875355
0.621,11.287614698,111.2037137
0.622,11.300499861,111.35696307
0.623,11.313377388,111.50853527
0.624,11.326246838,111.65846309
0.625,11.339107806,111.80677854
0.626,11.351959916,111.95351287
0.627,11.364802821,112.09869658
0.628,11.377636196,112.24235944
0.629,11.390459739,112.3845305
0.63,11.403273168,112.52523811
