time,pressure,volume
0,18.336867334,140.871151
0.001,27.539328326,144.10934488
0.002,28.570050085,147.19947633
0.003,29.906999796,150.0227265
0.004,30.876704183,152.62921207
0.005,31.735028846,155.04758839
0.006,32.582933715,157.28499147
0.007,33.400154587,159.34875244
0.008,34.166245602,161.24920603
0.009,34.872189222,162.99797713
0.01,35.512538418,164.60724405
0.011,36.086917534,166.0891573
0.012,36.604075495,167.45472597
0.013,37.079130357,168.71284324
0.014,37.525619134,169.87029057
0.015,37.950230833,170.93257784
0.016,38.352964567,171.90491014
0.017,38.730762099,172.79272791
0.018,39.081328765,173.60170738
0.019,39.404975904,174.33744011
0.02,39.704131133,175.00511936
0.021,39.981752317,175.60942266
0.022,40.239955533,176.15459739
0.023,40.479533589,176.6446377
0.024,40.700243085,177.08343999
0.025,40.901371214,177.47488271
0.026,41.082234001,177.82283495
0.027,41.242537254,178.1311116
0.028,41.382574173,178.40339978
0.029,41.503308996,178.64317304
0.03,41.606287829,178.85361472
0.031,41.693426363,179.03756935
0.032,41.766735307,179.19753063
0.033,41.828059949,179.33566595
0.034,41.878928714,179.45386447
0.035,41.920558808,179.55378811
0.036,41.953929889,179.63691244
0.037,41.979860594,179.70455609
0.038,41.999073739,179.75790055
0.039,42.012246061,179.79800271
0.04,42.020034189,179.82580487
0.041,42.023113427,179.84214877
0.042,42.02231391,179.84786457
0.043,42.029325017,179.84786496
0.044,42.067804537,179.84786535
0.045,42.106654237,179.84786573
0.046,42.15409142,179.84786611
0.047,42.20964073,179.84786649
0.048,42.27379501,179.84786687
0.049,42.346895877,179.84786724
0.05,42.429165942,179.84786761
0.051,42.520865496,179.84786797
0.052,42.622341066,179.84786833
0.053,42.734019448,179.84786869
0.054,42.856388146,179.84786904
0.055,42.98997393,179.84786938
0.056,43.135318973,179.84786972
0.057,43.29296711,179.84787006
0.058,43.463469267,179.84787038
0.059,43.647390942,179.8478707
0.06,43.845325297,179.84787101
0.061,44.05789657,179.84787132
0.062,44.285763817,179.84787162
0.063,44.529624627,179.84787191
0.064,44.790201443,179.84787219
0.065,45.0682488,179.84787246
0.066,45.364544543,179.84787272
0.067,45.679908832,179.84787297
0.068,46.015180757,179.84787321
0.069,46.371242947,179.84787344
0.07,46.749008661,179.84787365
0.071,47.149423334,179.84787385
0.072,47.573457156,179.84787404
0.073,48.022076355,179.84787422
0.074,48.496270722,179.84787438
0.075,48.997068333,179.84787453
0.076,49.525520346,179.84787466
0.077,50.082697102,179.84787477
0.078,50.669658424,179.84787486
0.079,51.28747117,179.84787494
0.08,51.937259916,179.847875
0.081,52.620159545,179.84787503
0.082,53.337314213,179.84787505
0.083,54.089889824,179.84787504
0.084,54.879119097,179.84787501
0.085,55.706195323,179.84787495
0.086,56.572334078,179.84787487
0.087,57.478743442,179.84787477
0.088,58.42671694,179.84787463
0.089,59.41749578,179.84787447
0.09,60.452357218,179.84787428
0.091,61.532596098,179.84787406
0.092,62.65945144,179.8478738
0.093,63.834240294,179.84787351
0.094,65.058323159,179.84787319
0.095,66.333017354,179.84787283
0.096,67.659621048,179.84787243
0.097,69.039471516,179.847872
0.098,70.10438018,179.79144271
0.099,70.918022086,179.62712608
0.1,71.595402345,179.38448563
0.101,72.180456849,179.08537479
0.102,72.707993456,178.74432308
0.103,73.200823932,178.37100065
0.104,73.674392703,177.97181843
0.105,74.138884173,177.55101794
0.106,74.600731771,177.11143847
0.107,75.063949855,176.65502152
0.108,75.530994027,176.18313372
0.109,76.003376406,175.69676998
0.11,76.481969863,175.19668273
0.111,76.967309628,174.68346397
0.112,77.459656103,174.15759576
0.113,77.959061115,173.61949529
0.114,78.465520354,173.06953061
0.115,78.978889679,172.5080442
0.116,79.499078363,171.93535275
0.117,80.025969963,171.35175255
0.118,80.559483644,170.75751681
0.119,81.099473479,170.15290482
0.12,81.645755765,169.53817001
0.121,82.198184943,168.91355725
0.122,82.756622983,168.27930089
0.123,83.320823938,167.6356385
0.124,83.89067818,166.98279974
0.125,84.466046369,166.32100393
0.126,85.046734719,165.65047043
0.127,85.632572539,164.9714163
0.128,86.223425393,164.28405287
0.129,86.819054991,163.58859479
0.13,87.419306718,162.88525665
0.131,88.024012947,162.17424955
0.132,88.633065568,161.45577669
0.133,89.246272031,160.73004089
0.134,89.863425387,159.99724839
0.135,90.484435294,159.25759951
0.136,91.109052675,158.51129591
0.137,91.737028723,157.75855259
0.138,92.368158614,156.99958702
0.139,93.002274323,156.23461576
0.14,93.639209396,155.46385353
0.141,94.278704339,154.68751907
0.142,94.920477615,153.90584713
0.143,95.564354432,153.11906967
0.144,96.210051438,152.32742631
0.145,96.857343579,151.5311628
0.146,97.506012359,150.73052553
0.147,98.155902862,149.9257562
0.148,98.806724413,149.1171022
0.149,99.458256188,148.30481649
0.15,100.11031867,147.4891469
0.151,100.76265485,146.67034536
0.152,101.41497733,145.84867427
0.153,102.06715135,145.02438862
0.154,102.71898291,144.19773817
0.155,103.37035546,143.36896251
0.156,104.02091484,142.53831537
0.157,104.67055785,141.70604293
0.158,105.31913728,140.87238277
0.159,105.96650624,140.03756503
0.16,106.61244121,139.20182057
0.161,107.2567549,138.36538202
0.162,107.89916981,137.5284895
0.163,108.53956254,136.69137941
0.164,109.17788147,135.85426897
0.165,109.81394337,135.01737278
0.166,110.44762331,134.18089897
0.167,111.07881161,133.34505071
0.168,111.70743709,132.51001586
0.169,112.33329625,131.6759867
0.17,112.95629993,130.84315015
0.171,113.57627827,130.01169011
0.172,114.19317327,129.18178458
0.173,114.8067717,128.35361286
0.174,115.41699626,127.52735279
0.175,116.02374027,126.70317068
0.176,116.62676069,125.88124749
0.177,117.22592072,125.06176147
0.178,117.8211083,124.24489113
0.179,118.4122512,123.43080292
0.18,118.99919447,122.61966636
0.181,119.58190947,121.81163988
0.182,120.16032987,121.00686887
0.183,120.73436079,120.20549962
0.184,121.30381408,119.40768212
0.185,121.86877221,118.6135477
0.186,122.42912523,117.82322183
0.187,122.98484859,117.03682415
0.188,123.535788,116.25447688
0.189,124.08185098,115.47630407
0.19,124.62304914,114.70241681
0.191,125.15933487,113.9329207
0.192,125.69071217,113.16791111
0.193,126.21713846,112.40747706
0.194,126.7386261,111.6516981
0.195,127.25505714,110.90065696
0.196,127.7663678,110.1544384
0.197,128.27249589,109.41312646
0.198,128.77343109,108.67680079
0.199,129.26918092,107.94553033
0.2,129.75970754,107.21938133
0.201,130.24496588,106.49841943
0.202,130.72497351,105.78270294
0.203,131.199667,105.07228971
0.204,131.66905893,104.36723399
0.205,132.13312171,103.66758566
0.206,132.59186589,102.97339017
0.207,133.04527722,102.28468942
0.208,133.49334595,101.60152289
0.209,133.93606942,100.92392691
0.21,134.37344361,100.25193484
0.211,134.80546592,99.58557741
0.212,135.23212922,98.924883365
0.213,135.65343508,98.269879109
0.214,136.06939815,97.620587269
0.215,136.4800384,96.977026043
0.216,136.88537253,96.33920996
0.217,137.28540705,95.707151398
0.218,137.68015166,95.080860989
0.219,138.06963363,94.460345789
0.22,138.45387833,93.845609164
0.221,138.83290341,93.236652239
0.222,139.20673065,92.633473963
0.223,139.57537742,92.036071497
0.224,139.93886489,91.444440513
0.225,140.29723255,90.858573115
0.226,140.65052206,90.278457355
0.227,140.9987585,89.70407942
0.228,141.34197517,89.135423691
0.229,141.68020484,88.572472371
0.23,142.01347598,88.015206445
0.231,142.34181429,87.463606091
0.232,142.66524707,86.917650822
0.233,142.9838121,86.377318349
0.234,143.29754414,85.84258464
0.235,143.60647631,85.313424753
0.236,143.91065134,84.789811573
0.237,144.2101166,84.271715622
0.238,144.50490505,83.759106197
0.239,144.79505852,83.251951855
0.24,145.08062002,82.750218963
0.241,145.36160428,82.253875454
0.242,145.63803741,81.762890706
0.243,145.90996671,81.277232187
0.244,146.17747323,80.796862561
0.245,146.44063483,80.321737766
0.246,146.69948839,79.851813615
0.247,146.95408064,79.387045126
0.248,147.204407,78.927391759
0.249,147.45047769,78.472817983
0.25,147.69234155,78.023286363
0.251,147.93003519,77.578759944
0.252,148.16362851,77.139197378
0.253,148.3931558,76.704557118
0.254,148.61864182,76.274798852
0.255,148.84013997,75.849881637
0.256,149.05768932,75.429763415
0.257,149.27131511,75.014403884
0.258,149.48105284,74.603763355
0.259,149.68696804,74.197798678
0.26,149.88905061,73.796471212
0.261,150.08730829,73.399746669
0.262,150.28177907,73.007591664
0.263,150.47252934,72.619967932
0.264,150.65955349,72.236840433
0.265,150.84285226,71.858178708
0.266,151.02241952,71.483957684
0.267,151.1983148,71.114148392
0.268,151.3705527,70.748723126
0.269,151.53915557,70.387653561
0.27,151.70413589,70.030915087
0.271,151.8655422,69.678479489
0.272,152.02340981,69.330317406
0.273,152.17776198,68.986399418
0.274,152.32860497,68.646699219
0.275,152.4759926,68.311187708
0.276,152.6199453,67.979835231
0.277,152.76042908,67.652619021
0.278,152.89747305,67.329518351
0.279,153.03114967,67.01050556
0.28,153.16147742,66.695553164
0.281,153.28843815,66.38463694
0.282,153.41199317,66.077742034
0.283,153.53219566,65.774850721
0.284,153.64904077,65.475946211
0.285,153.76256435,65.181011194
0.286,153.87280579,64.89002501
0.287,153.9797492,64.602969358
0.288,154.08337907,64.319831677
0.289,154.18368475,64.040602547
0.29,154.28064705,63.76527498
0.291,154.37427892,63.493844238
0.292,154.46461043,63.226301596
0.293,154.55165235,62.962638793
0.294,154.63541497,62.702845944
0.295,154.71585181,62.446921007
0.296,154.79302407,62.19485654
0.297,154.86690881,61.946645983
0.298,154.93742628,61.702294547
0.299,155.00466874,61.461799231
0.3,155.06863937,61.225155116
0.301,155.12933472,60.992357207
0.302,155.18671913,60.763406629
0.303,155.24083109,60.538302011
0.304,155.29164838,60.317042256
0.305,155.33912209,60.099632794
0.306,155.38330599,59.886075991
0.307,155.424201,59.676371156
0.308,155.46178817,59.47052138
0.309,155.49613985,59.268522493
0.31,155.52721854,59.070371028
0.311,155.55498511,58.876072355
0.312,155.57947152,58.685627237
0.313,155.60062409,58.499041746
0.314,155.61837456,58.316330975
0.315,155.63274582,58.137507775
0.316,155.64371647,57.962584884
0.317,155.65125813,57.791579077
0.318,155.65538455,57.624503536
0.319,155.65596335,57.461383223
0.32,155.65290915,57.302254073
0.321,155.6461517,57.147158319
0.322,155.63567212,56.996137514
0.323,155.62142111,56.8492341
0.324,155.60329672,56.706498841
0.325,155.58127749,56.567982676
0.326,155.55535736,56.433731668
0.327,155.52547196,56.303794173
0.328,155.49151606,56.178226666
0.329,155.45341116,56.057089877
0.33,155.41105719,55.940451638
0.331,155.36439923,55.828382133
0.332,155.31337306,55.720949714
0.333,155.25782374,55.618235157
0.334,155.19763624,55.520326486
0.335,155.13277245,55.42731081
0.336,155.06315015,55.339273579
0.337,154.98858736,55.256312638
0.338,154.90887673,55.178541849
0.339,154.82380682,55.106092043
0.34,154.73327179,55.039095038
0.341,154.63707829,54.977691845
0.342,154.53500563,54.922036243
0.343,154.42681117,54.872296649
0.344,154.31221196,54.82865815
0.345,154.1910274,54.79131444
0.346,154.06299984,54.760465412
0.347,153.92779661,54.736328484
0.348,153.78501973,54.719141247
0.349,153.63420638,54.709147895
0.35,153.47342734,54.706469885
0.351,153.19657025,54.706468164
0.352,152.83614637,54.706466451
0.353,152.39181448,54.706464749
0.354,151.86748271,54.706463058
0.355,151.26802874,54.706461382
0.356,150.59784881,54.706459722
0.357,149.86139387,54.70645808
0.358,149.06371714,54.706456457
0.359,148.21006844,54.706454856
0.36,147.30544527,54.706453277
0.361,146.35427318,54.706451722
0.362,145.36066947,54.706450191
0.363,144.32819302,54.706448687
0.364,143.26068365,54.70644721
0.365,142.16134093,54.706445761
0.366,141.03339747,54.70644434
0.367,139.87952209,54.706442949
0.368,138.70249164,54.706441588
0.369,137.50473993,54.706440257
0.37,136.28826828,54.706438957
0.371,135.05522823,54.706437689
0.372,133.8074801,54.706436453
0.373,132.54661784,54.706435249
0.374,131.2742252,54.706434078
0.375,129.9917102,54.706432939
0.376,128.70018892,54.706431834
0.377,127.40067273,54.706430762
0.378,126.09405525,54.706429724
0.379,124.7812381,54.706428719
0.38,123.46304892,54.706427748
0.381,122.14015666,54.706426811
0.382,120.81308837,54.706425909
0.383,119.48235258,54.70642504
0.384,118.14844575,54.706424206
0.385,116.81171621,54.706423407
0.386,115.47239237,54.706422642
0.387,114.13103568,54.706421911
0.388,112.78809837,54.706421215
0.389,111.44392731,54.706420553
0.39,110.09872354,54.706419926
0.391,108.75272226,54.706419334
0.392,107.40637507,54.706418777
0.393,106.05999005,54.706418254
0.394,104.71397705,54.706417766
0.395,103.36875299,54.706417312
0.396,102.02451284,54.706416893
0.397,100.6815261,54.706416509
0.398,99.340131451,54.706416159
0.399,98.000750499,54.706415844
0.4,96.663742182,54.706415563
0.401,95.329251573,54.706415317
0.402,93.997965855,54.706415105
0.403,92.670194418,54.706414927
0.404,91.346211096,54.706414784
0.405,90.026379075,54.706414674
0.406,88.711063955,54.706414598
0.407,87.400530292,54.706414556
0.408,86.095129888,54.706414548
0.409,84.795212343,54.706414573
0.41,83.501117751,54.706414631
0.411,82.213128956,54.706414723
0.412,80.931543254,54.706414848
0.413,79.656739618,54.706415005
0.414,78.388999795,54.706415195
0.415,77.128673457,54.706415418
0.416,75.875975385,54.706415673
0.417,74.631171665,54.70641596
0.418,73.394583213,54.706416278
0.419,72.166386956,54.706416629
0.42,70.946870022,54.70641701
0.421,69.736400253,54.706417423
0.422,68.535169358,54.706417867
0.423,67.34320186,54.706418341
0.424,66.160819534,54.706418846
0.425,64.988198036,54.706419381
0.426,63.825553421,54.706419946
0.427,62.673043998,54.70642054
0.428,61.53086868,54.706421164
0.429,60.399181302,54.706421817
0.43,59.278154443,54.706422499
0.431,58.167933982,54.706423209
0.432,57.068618232,54.706423947
0.433,55.980356648,54.706424713
0.434,54.903259374,54.706425507
0.435,53.837488758,54.706426328
0.436,52.783158206,54.706427177
0.437,51.740341782,54.706428051
0.438,50.709181997,54.706428953
0.439,49.689774147,54.70642988
0.44,48.682191742,54.706430833
0.441,47.68651528,54.706431812
0.442,46.702876262,54.706432815
0.443,45.731356715,54.706433844
0.444,44.771946704,54.706434897
0.445,43.824770134,54.706435974
0.446,42.889891052,54.706437075
0.447,41.967338886,54.7064382
0.448,41.057122179,54.706439347
0.449,40.159233788,54.706440518
0.45,39.273606605,54.706441711
0.451,38.400192092,54.706442926
0.452,37.538972997,54.706444163
0.453,36.689958918,54.706445422
0.454,35.853122428,54.706446702
0.455,35.028431415,54.706448003
0.456,34.215900469,54.706449324
0.457,33.415537385,54.706450666
0.458,32.627282218,54.706452028
0.459,31.851132649,54.706453409
0.46,31.087084135,54.706454809
0.461,30.335114339,54.706456229
0.462,29.595199234,54.706457667
0.463,28.867310852,54.706459123
0.464,28.151432172,54.706460598
0.465,27.447549516,54.70646209
0.466,26.755569689,54.7064636
0.467,26.07536765,54.706465126
0.468,25.410944749,54.706978979
0.469,25.100448115,54.739171397
0.47,24.798045948,54.812147283
0.471,24.52278213,54.92157322
0.472,24.270853643,55.063022597
0.473,24.032413692,55.233437507
0.474,23.8019164,55.430759764
0.475,23.577687447,55.653317431
0.476,23.359072778,55.899592311
0.477,23.145164342,56.168223423
0.478,22.934757789,56.458042945
0.479,22.726592396,56.768088722
0.48,22.519517276,57.097586786
0.481,22.312660776,57.44591492
0.482,22.105439498,57.81255894
0.483,21.897595386,58.197067036
0.484,21.689073427,58.599018161
0.485,21.480068334,59.017989139
0.486,21.270912933,59.453531376
0.487,21.061995045,59.905162931
0.488,20.853791796,60.372360123
0.489,20.646755077,60.85455496
0.49,20.441227402,61.351150584
0.491,20.237488173,61.86153338
0.492,20.035876851,62.385067541
0.493,19.836710057,62.921097346
0.494,19.640283022,63.46894835
0.495,19.446841804,64.027934598
0.496,19.256537123,64.597371868
0.497,19.069536621,65.176575544
0.498,18.885878147,65.764876414
0.499,18.705722434,66.36161146
0.5,18.529166193,66.966122275
0.501,18.356233867,67.577769423
0.502,18.187029081,68.195922217
0.503,18.021587069,68.819964716
0.504,17.859761034,69.449313568
0.505,17.70152356,70.083413717
0.506,17.546693501,70.721746929
0.507,17.395058221,71.363838616
0.508,17.246495761,72.00925245
0.509,17.100802005,72.657586127
0.51,16.957781845,73.308482561
0.511,16.817396807,73.961602443
0.512,16.679620377,74.61662618
0.513,16.544523205,75.273233146
0.514,16.412230149,75.931103082
0.515,16.283050415,76.589890705
0.516,16.157299362,77.24921694
0.517,16.035459717,77.908662211
0.518,15.917775806,78.567770129
0.519,15.804647458,79.226061394
0.52,15.696276946,79.883027427
0.521,15.592546256,80.538185595
0.522,15.493089231,81.191108197
0.523,15.397502764,81.84142973
0.524,15.305294566,82.48886352
0.525,15.216031882,83.133187977
0.526,15.129233936,83.77425521
0.527,15.04481843,84.411935948
0.528,14.962468811,85.046148855
0.529,14.88241203,85.676797421
0.53,14.804738868,86.303771329
0.531,14.729606855,86.926943305
0.532,14.657200608,87.546166389
0.533,14.587709986,88.161272359
0.534,14.521206842,88.772083502
0.535,14.45785372,89.378408465
0.536,14.397767246,89.980043503
0.537,14.340923595,90.57678739
0.538,14.287277833,91.168451919
0.539,14.236795845,91.75485678
0.54,14.189467928,92.33582872
0.541,14.145228851,92.911204771
0.542,14.104004328,93.480836423
0.543,14.065757346,94.044583761
0.544,14.030445045,94.602315662
0.545,13.998036049,95.153908047
0.546,13.968486505,95.699244516
0.547,13.941735976,96.23821831
0.548,13.917712286,96.770733707
0.549,13.896335885,97.296706766
0.55,13.877522695,97.81606562
0.551,13.861185894,98.328750504
0.552,13.847237129,98.834713597
0.553,13.835587378,99.333918758
0.554,13.826147224,99.826341203
0.555,13.818826455,100.31196723
0.556,13.813533297,100.79079404
0.557,13.810173498,101.26282971
0.558,13.808649635,101.72809322
0.559,13.808860934,102.18661459
0.56,13.810703807,102.63843491
0.561,13.814073119,103.08360624
0.562,13.818864017,103.52219135
0.563,13.824974052,103.95426306
0.564,13.832305272,104.37990352
0.565,13.840766,104.79920304
0.566,13.850272121,105.21225897
0.567,13.860747797,105.61917436
0.568,13.87212562,106.02005672
0.569,13.884346284,106.41501678
0.57,13.897357885,106.80416739
0.571,13.911114998,107.18762261
0.572,13.925577658,107.56549693
0.573,13.940710341,107.9379046
0.574,13.956481032,108.30495922
0.575,13.972860416,108.66677335
0.576,13.989821218,109.02345831
0.577,14.007337689,109.37512398
0.578,14.025385228,109.72187872
0.579,14.043940107,110.06382932
0.58,14.062979305,110.40108094
0.581,14.082480409,110.73373715
0.582,14.102421571,111.06189987
0.583,14.122781516,111.38566942
0.584,14.143539574,111.70514447
0.585,14.164675735,112.02042205
0.586,14.186170715,112.33159753
0.587,14.208006021,112.63876462
0.588,14.230164009,112.94201526
0.589,14.252627927,113.24143966
0.59,14.275381939,113.53712623
0.591,14.298411132,113.82916153
0.592,14.321701489,114.11763023
0.593,14.345239856,114.4026151
0.594,14.369013886,114.68419696
0.595,14.393011972,114.9624547
0.596,14.417223185,115.23746522
0.597,14.441637201,115.50930348
0.598,14.466244248,115.77804248
0.599,14.491035056,116.04375329
0.6,14.516000816,116.30650509
0.601,14.541133157,116.56636514
0.602,14.566424124,116.82339886
0.603,14.591866172,117.07766983
0.604,14.617452151,117.32923982
0.605,14.643175303,117.57816882
0.606,14.66902925,117.82451507
0.607,14.695007981,118.06833506
0.608,14.721105831,118.30968361
0.609,14.747317466,118.54861383
0.61,14.773637849,118.78517724
0.611,14.800062219,119.0194237
0.612,14.826586059,119.25140155
0.613,14.85320507,119.48115755
0.614,14.879915144,119.70873701
0.615,14.906712343,119.93418377
0.616,14.93359288,120.15754026
0.617,14.960553102,120.37884755
0.618,14.987589477,120.59814539
0.619,15.014698587,120.81547226
0.62,15.04187712,121.03086538
0.621,15.069121866,121.24436079
0.622,15.096429708,121.45599338
0.623,15.123797625,121.66579692
0.624,15.151222686,121.87380408
0.625,15.178702044,122.08004652
0.626,15.206232938,122.28455486
0.627,15.233812685,122.48735878
0.628,15.261438675,122.68848699
0.629,15.289108372,122.88796732
0.63,15.316819305,123.08582671
