time,pressure,volume
0,18.20038996,140.871151
0.001,22.965793541,142.61481987
0.002,23.576064139,144.28778956
0.003,24.313119801,145.83366696
0.004,24.8626925,147.27585944
0.005,25.354400278,148.62791139
0.006,25.849796024,149.89119737
0.007,26.334761791,151.06728927
0.008,26.791575719,152.16033039
0.009,27.212626083,153.17573875
0.01,27.594911354,154.11936686
0.011,27.937431297,154.9971777
0.012,28.24212208,155.81489429
0.013,28.51466811,156.57751701
0.014,28.763057842,157.28896463
0.015,28.99462539,157.95208186
0.016,29.213714503,158.56899367
0.017,29.421152271,159.14158427
0.018,29.6153537,159.67186681
0.019,29.794086909,160.16212353
0.02,29.955981049,160.61482809
0.021,30.101235537,161.03244732
0.022,30.231493609,161.41723815
0.023,30.349153282,161.77112541
0.024,30.456547631,162.09569031
0.025,30.555312858,162.3922514
0.026,30.646126569,162.66199132
0.027,30.728811855,162.90607825
0.028,30.802678236,163.12574602
0.029,30.866938768,163.3223181
0.03,30.921044114,163.49718323
0.031,30.964861446,163.65174254
0.032,30.998695863,163.78735007
0.033,31.023184587,163.90526511
0.034,31.039134442,164.00662593
0.035,31.047364969,164.09244573
0.036,31.048610217,164.16362395
0.037,31.043478314,164.22096473
0.038,31.032450781,164.26519659
0.039,31.015909118,164.29699031
0.04,30.994174362,164.31697679
0.041,30.967595648,164.32579488
0.042,30.93774477,164.32636904
0.043,30.944003159,164.32636959
0.044,30.942455293,164.32637012
0.045,30.945893106,164.32637066
0.046,30.951912728,164.3263712
0.047,30.960616623,164.32637173
0.048,30.972411396,164.32637226
0.049,30.987393915,164.32637279
0.05,31.005513921,164.32637332
0.051,31.026701233,164.32637384
0.052,31.05092727,164.32637436
0.053,31.078223851,164.32637488
0.054,31.108680672,164.32637539
0.055,31.142428852,164.3263759
0.056,31.179621773,164.32637641
0.057,31.220409464,164.32637692
0.058,31.264927955,164.32637742
0.059,31.313292538,164.32637792
0.06,31.365609477,164.32637841
0.061,31.42198742,164.3263789
0.062,31.482539023,164.32637939
0.063,31.547394507,164.32637987
0.064,31.616695749,164.32638035
0.065,31.690601495,164.32638082
0.066,31.769273588,164.32638129
0.067,31.85287146,164.32638176
0.068,31.941566408,164.32638222
0.069,32.035530883,164.32638268
0.07,32.134936161,164.32638313
0.071,32.23994753,164.32638357
0.072,32.3507402,164.32638401
0.073,32.467499478,164.32638445
0.074,32.590418801,164.32638488
0.075,32.719698689,164.3263853
0.076,32.855533968,164.32638572
0.077,32.998122192,164.32638613
0.078,33.147680617,164.32638653
0.079,33.304422889,164.32638693
0.08,33.468573724,164.32638732
0.081,33.640356346,164.3263877
0.082,33.820015289,164.32638808
0.083,34.007796867,164.32638845
0.084,34.203958202,164.32638881
0.085,34.408749647,164.32638916
0.086,34.622434079,164.32638951
0.087,34.845275463,164.32638985
0.088,35.077555386,164.32639018
0.089,35.319541842,164.3263905
0.09,35.571521164,164.32639081
0.091,35.833788884,164.32639111
0.092,36.106643709,164.3263914
0.093,36.390387683,164.32639168
0.094,36.685313984,164.32639195
0.095,36.991715837,164.32639222
0.096,37.309887854,164.32639247
0.097,37.640138265,164.32639271
0.098,37.982766744,164.32639293
0.099,38.338061104,164.32639315
0.1,38.706321126,164.32639336
0.101,39.08785466,164.32639355
0.102,39.482963477,164.32639373
0.103,39.891930571,164.32639389
0.104,40.315043924,164.32639405
0.105,40.752602345,164.32639419
0.106,41.204909656,164.32639431
0.107,41.672269177,164.32639442
0.108,42.154977229,164.32639452
0.109,42.653323924,164.3263946
0.11,43.167603376,164.32639466
0.111,43.698089351,164.32639471
0.112,44.245056609,164.32639474
0.113,44.808777657,164.32639476
0.114,45.38953849,164.32639476
0.115,45.987615153,164.32639474
0.116,46.603286335,164.3263947
0.117,47.236846785,164.32639464
0.118,47.888580781,164.32639456
0.119,48.558764844,164.32639447
0.12,49.24766678,164.32639435
0.121,49.955571449,164.32639422
0.122,50.682752195,164.32639406
0.123,51.429475176,164.32639388
0.124,52.196013689,164.32639368
0.125,52.982629217,164.32639346
0.126,53.789575328,164.32639321
0.127,54.617077785,164.32639294
0.128,55.465388269,164.32639265
0.129,56.334733562,164.32639233
0.13,57.225330195,164.32639198
0.131,58.137391646,164.32639161
0.132,59.071117811,164.32639122
0.133,60.026698943,164.3263908
0.134,61.004319878,164.32639035
0.135,62.004136133,164.32638987
0.136,63.026299469,164.32638936
0.137,64.070929565,164.32638883
0.138,65.138145487,164.32638826
0.139,66.228056201,164.32638767
0.14,67.340772686,164.32638705
0.141,68.476374247,164.32638639
0.142,69.461549358,164.30541466
0.143,70.1299712,164.19784453
0.144,70.664910364,164.02531641
0.145,71.104154439,163.80864435
0.146,71.484290849,163.56128575
0.147,71.828451273,163.29186034
0.148,72.151761364,163.00587522
0.149,72.464133673,162.70680562
0.15,72.77187274,162.39682934
0.151,73.078792658,162.07732148
0.152,73.387022136,161.74918342
0.153,73.697556718,161.4130569
0.154,74.010762296,161.06944939
0.155,74.32672563,160.71879502
0.156,74.645485658,160.36147429
0.157,74.967079714,159.997821
0.158,75.291543736,159.62812761
0.159,75.618901901,159.25265009
0.16,75.949100812,158.87162097
0.161,76.282078679,158.4852548
0.162,76.61775093,158.09375306
0.163,76.956040084,157.69730495
0.164,77.296858327,157.2960901
0.165,77.640119681,156.89027972
0.166,77.985749474,156.48003567
0.167,78.333655847,156.06551377
0.168,78.683785016,155.64686025
0.169,79.03603906,155.22421701
0.17,79.390342889,154.79772034
0.171,79.746605303,154.36750339
0.172,80.104747823,153.93369448
0.173,80.464704462,153.49641762
0.174,80.826403661,153.0557911
0.175,81.189738403,152.61193352
0.176,81.554608556,152.16496397
0.177,81.92094606,151.71499771
0.178,82.288684187,151.26214645
0.179,82.657749807,150.80651853
0.18,83.028022912,150.34822419
0.181,83.399422047,149.88737383
0.182,83.771848562,149.42407816
0.183,84.145261079,148.95844238
0.184,84.519566654,148.49057082
0.185,84.894643062,148.02057031
0.186,85.270348236,147.54855579
0.187,85.646644238,147.0746367
0.188,86.023444647,146.59891974
0.189,86.400649312,146.12151305
0.19,86.778148307,145.64252684
0.191,87.155845414,145.1620718
0.192,87.533664585,144.68025816
0.193,87.911533002,144.19719227
0.194,88.289352608,143.7129818
0.195,88.66705205,143.22773258
0.196,89.04451329,142.74155146
0.197,89.421617603,142.25455147
0.198,89.798316148,141.76683992
0.199,90.17452421,141.27852315
0.2,90.550161679,140.78970631
0.201,90.925135363,140.30049487
0.202,91.299333804,139.81099602
0.203,91.672682691,139.32131776
0.204,92.045137991,138.83156215
0.205,92.416652622,138.3418259
0.206,92.787130797,137.85220597
0.207,93.156503883,137.36279964
0.208,93.52471639,136.87370069
0.209,93.891711475,136.38499974
0.21,94.257396153,135.89678931
0.211,94.621760789,135.4091551
0.212,94.98472422,134.9221824
0.213,95.346211445,134.43595635
0.214,95.706120129,133.9505667
0.215,96.06441747,133.4660998
0.216,96.421075744,132.98263524
0.217,96.776041337,132.50025161
0.218,97.12926694,132.01902399
0.219,97.480630744,131.53903358
0.22,97.83010314,131.06036076
0.221,98.177650149,130.58308006
0.222,98.523200601,130.10726623
0.223,98.86670323,129.63299443
0.224,99.20810823,129.1603361
0.225,99.547333296,128.68936845
0.226,99.884408896,128.22015645
0.227,100.21927268,127.7527646
0.228,100.55186353,127.28725841
0.229,100.88212571,126.82370509
0.23,101.21006334,126.36216403
0.231,101.53562135,125.90269498
0.232,101.85875561,125.445357
0.233,102.17947893,124.99020424
0.234,102.49778121,124.53728369
0.235,102.81357629,124.08664625
0.236,103.12680051,123.63834896
0.237,103.43745264,123.19244152
0.238,103.745474,122.74897777
0.239,104.05080521,122.30801155
0.24,104.3535159,121.86958626
0.241,104.65356176,121.43374348
0.242,104.95088287,121.000527
0.243,105.24548328,120.56997822
0.244,105.53734423,120.14213559
0.245,105.82642455,119.71703853
0.246,106.11270997,119.29472468
0.247,106.39615502,118.87523329
0.248,106.67675715,118.45860106
0.249,106.95447458,118.0448651
0.25,107.22930365,117.63405989
0.251,107.50121941,117.22622005
0.252,107.77022696,116.82137603
0.253,108.03628558,116.41955906
0.254,108.29938971,116.02079987
0.255,108.5595259,115.62512677
0.256,108.81667973,115.23256736
0.257,109.07082562,114.84314924
0.258,109.32194852,114.45690023
0.259,109.57005127,114.07384499
0.26,109.8151223,113.69400676
0.261,110.05714251,113.31740899
0.262,110.29611111,112.94407343
0.263,110.53202149,112.57402031
0.264,110.76486273,112.20726931
0.265,110.99462558,111.84383944
0.266,111.22130207,111.48374899
0.267,111.44488434,111.12701553
0.268,111.66536724,110.77365577
0.269,111.88274533,110.42368551
0.27,112.09701409,110.07711974
0.271,112.30816932,109.73397262
0.272,112.51620808,109.39425749
0.273,112.7211273,109.05798684
0.274,112.92292146,108.72517271
0.275,113.12158277,108.39582706
0.276,113.31710301,108.06996185
0.277,113.50947591,107.74758892
0.278,113.69869605,107.42871982
0.279,113.88476149,107.11336545
0.28,114.0676673,106.80153631
0.281,114.24740875,106.49324269
0.282,114.42397864,106.18849481
0.283,114.59736837,105.88730324
0.284,114.76757666,105.58967803
0.285,114.93459686,105.29562902
0.286,115.09842074,105.00516628
0.287,115.25903477,104.71830075
0.288,115.41642933,104.43504368
0.289,115.57058292,104.15540786
0.29,115.72148241,103.879407
0.291,115.86911048,103.60705557
0.292,116.01345275,103.3383689
0.293,116.15449535,103.07336252
0.294,116.29222573,102.81205239
0.295,116.42662037,102.55445559
0.296,116.55766929,102.30058954
0.297,116.68535619,102.05047169
0.298,116.80966002,101.80412067
0.299,116.93056934,101.56155512
0.3,117.04806767,101.32279385
0.301,117.16213575,101.08785636
0.302,117.27275221,100.85676298
0.303,117.37989025,100.62953546
0.304,117.48352427,100.40619687
0.305,117.58363281,100.18677101
0.306,117.68019582,99.971281948
0.307,117.77318126,99.759755055
0.308,117.86254503,99.552218879
0.309,117.94826119,99.348703082
0.31,118.03031058,99.149236998
0.311,118.10865682,98.953851214
0.312,118.18326942,98.76257751
0.313,118.25411863,98.575448386
0.314,118.3211587,98.392498458
0.315,118.3843503,98.213764368
0.316,118.44364455,98.039284929
0.317,118.49898201,97.869102506
0.318,118.55029083,97.703264167
0.319,118.59752717,97.541819074
0.32,118.64065591,97.384815716
0.321,118.67960848,97.232305506
0.322,118.71431907,97.08434356
0.323,118.74473639,96.940986222
0.324,118.77078972,96.802292633
0.325,118.7924198,96.668324211
0.326,118.80957297,96.539142754
0.327,118.82218723,96.414811704
0.328,118.83019431,96.295396554
0.329,118.83350043,96.180967071
0.33,118.83199377,96.071600238
0.331,118.82557845,95.967377926
0.332,118.81416212,95.868385577
0.333,118.79765564,95.774711191
0.334,118.77596423,95.68644612
0.335,118.74901258,95.603682076
0.336,118.71670444,95.526513051
0.337,118.67892844,95.455037288
0.338,118.63559215,95.389355537
0.339,118.58662111,95.329567894
0.34,118.53190939,95.275776196
0.341,118.47134245,95.228086517
0.342,118.40480689,95.186607878
0.343,118.33217322,95.151453231
0.344,118.25330158,95.122740558
0.345,118.16806034,95.100589243
0.346,118.076377,95.085105208
0.347,117.97797728,95.076393388
0.348,117.87021719,95.074379609
0.349,117.69513603,95.07437831
0.35,117.47280359,95.074377016
0.351,117.2062831,95.074375728
0.352,116.90106532,95.074374448
0.353,116.56177431,95.074373176
0.354,116.1924599,95.074371913
0.355,115.79702383,95.07437066
0.356,115.37918171,95.074369417
0.357,114.94232148,95.074368185
0.358,114.48940575,95.074366965
0.359,114.02292514,95.074365757
0.36,113.54494104,95.07436456
0.361,113.05715354,95.074363376
0.362,112.56097763,95.074362205
0.363,112.05754452,95.074361047
0.364,111.54774195,95.074359901
0.365,111.03226201,95.074358769
0.366,110.51164315,95.07435765
0.367,109.98627172,95.074356545
0.368,109.45633873,95.074355453
0.369,108.92200676,95.074354375
0.37,108.38330691,95.074353311
0.371,107.84021227,95.074352261
0.372,107.29264689,95.074351224
0.373,106.74053686,95.074350202
0.374,106.18377847,95.074349194
0.375,105.62228852,95.074348201
0.376,105.05597536,95.074347222
0.377,104.48476991,95.074346258
0.378,103.90862287,95.074345308
0.379,103.32747816,95.074344374
0.38,102.7413624,95.074343454
0.381,102.15032467,95.07434255
0.382,101.55441839,95.074341661
0.383,100.95370097,95.074340788
0.384,100.34827828,95.07433993
0.385,99.738255368,95.074339088
0.386,99.123750545,95.074338262
0.387,98.504878943,95.074337452
0.388,97.881789623,95.074336658
0.389,97.254635542,95.07433588
0.39,96.623588948,95.074335118
0.391,95.988823217,95.074334373
0.392,95.350478627,95.074333644
0.393,94.70873596,95.074332931
0.394,94.063803239,95.074332236
0.395,93.415853042,95.074331557
0.396,92.765064193,95.074330895
0.397,92.111595452,95.07433025
0.398,91.455614796,95.074329622
0.399,90.797289838,95.07432901
0.4,90.13678118,95.074328416
0.401,89.474253271,95.074327839
0.402,88.809873172,95.07432728
0.403,88.143751406,95.074326737
0.404,87.476051531,95.074326212
0.405,86.806946562,95.074325704
0.406,86.136575245,95.074325213
0.407,85.465048411,95.07432474
0.408,84.792534324,95.074324285
0.409,84.11914478,95.074323846
0.41,83.445008477,95.074323425
0.411,82.770233348,95.074323022
0.412,82.094930929,95.074322636
0.413,81.419215929,95.074322268
0.414,80.743195497,95.074321917
0.415,80.066980984,95.074321584
0.416,79.390667237,95.074321268
0.417,78.714358001,95.07432097
0.418,78.038147022,95.074320689
0.419,77.36212822,95.074320426
0.42,76.68642574,95.07432018
0.421,76.011133441,95.074319952
0.422,75.336323168,95.074319741
0.423,74.662089758,95.074319548
0.424,73.988545455,95.074319372
0.425,73.315776723,95.074319214
0.426,72.643888069,95.074319073
0.427,71.972974218,95.074318949
0.428,71.303119825,95.074318843
0.429,70.634409098,95.074318754
0.43,69.966928156,95.074318683
0.431,69.300761159,95.074318628
0.432,68.635992634,95.074318591
0.433,67.972700517,95.074318571
0.434,67.310957116,95.074318569
0.435,66.650827875,95.074318583
0.436,65.992387173,95.074318614
0.437,65.335738985,95.074318663
0.438,64.680969882,95.074318728
0.439,64.02815827,95.074318811
0.44,63.377362127,95.07431891
0.441,62.728648903,95.074319026
0.442,62.082096783,95.074319159
0.443,61.437781296,95.074319308
0.444,60.795769874,95.074319474
0.445,60.156127567,95.074319657
0.446,59.518927505,95.074319856
0.447,58.884231328,95.074320072
0.448,58.252116037,95.074320304
0.449,57.622636382,95.074320552
0.45,56.995846824,95.074320817
0.451,56.371818076,95.074321098
0.452,55.750605709,95.074321394
0.453,55.132268406,95.074321707
0.454,54.51686298,95.074322036
0.455,53.904446397,95.07432238
0.456,53.295072348,95.074322741
0.457,52.688790401,95.074323117
0.458,52.085659944,95.074323508
0.459,51.485720259,95.074323915
0.46,50.88901486,95.074324338
0.461,50.295598994,95.074324776
0.462,49.705555203,95.074325229
0.463,49.118915507,95.074325697
0.464,48.535771492,95.074326181
0.465,47.956175787,95.074326679
0.466,47.380195654,95.074327192
0.467,46.807870416,95.074327721
0.468,46.239256908,95.074328263
0.469,45.674392465,95.074328821
0.47,45.113326732,95.074329392
0.471,44.556131056,95.074329979
0.472,44.002853624,95.074330579
0.473,43.453546841,95.074331194
0.474,42.908260988,95.074331822
0.475,42.367028722,95.074332465
0.476,41.829891823,95.074333122
0.477,41.29691947,95.074333792
0.478,40.768142552,95.074334476
0.479,40.243582011,95.074335173
0.48,39.723286991,95.074335884
0.481,39.207308341,95.074336608
0.482,38.695703387,95.074337346
0.483,38.188499875,95.074338096
0.484,37.685761541,95.074338859
0.485,37.187532277,95.074339635
0.486,36.693834376,95.074340424
0.487,36.204710033,95.074341226
0.488,35.720194092,95.074342039
0.489,35.24026081,95.074342866
0.49,34.764992582,95.074343704
0.491,34.294448713,95.074344554
0.492,33.828646534,95.074345417
0.493,33.367622424,95.074346291
0.494,32.91138338,95.074347177
0.495,32.459949599,95.074348075
0.496,32.013315614,95.074348983
0.497,31.571515712,95.074349904
0.498,31.134597272,95.074350835
0.499,30.702552569,95.074351778
0.5,30.275386562,95.074352731
0.501,29.853097562,95.074353695
0.502,29.435696469,95.07435467
0.503,29.023199787,95.074355656
0.504,28.615614689,95.074356652
0.505,28.212906832,95.074357658
0.506,27.815082535,95.074358674
0.507,27.422159012,95.0743597
0.508,27.034147746,95.074360737
0.509,26.651021244,95.074361783
0.51,26.272768985,95.074362838
0.511,25.89937939,95.074363903
0.512,25.530841657,95.074364978
0.513,25.167141589,95.074366061
0.514,24.80828153,95.074367154
0.515,24.45422265,95.074368256
0.516,24.104952356,95.074369366
0.517,23.760431308,95.074370486
0.518,23.420633627,95.074371614
0.519,23.085559515,95.07437275
0.52,22.806347191,95.080116883
0.521,22.61170182,95.112069544
0.522,22.424045223,95.170730604
0.523,22.249152931,95.254007846
0.524,22.083205158,95.360232972
0.525,21.92368734,95.488168213
0.526,21.769886889,95.636733227
0.527,21.621486172,95.804909925
0.528,21.478095625,95.991742516
0.529,21.339144807,96.196358979
0.53,21.204083184,96.4179758
0.531,21.072454702,96.655883454
0.532,20.943828899,96.909440899
0.533,20.817826635,97.178068576
0.534,20.694102584,97.461242693
0.535,20.572359628,97.758487827
0.536,20.452361797,98.069369776
0.537,20.333960667,98.393483469
0.538,20.217080792,98.730442277
0.539,20.10172273,99.079868217
0.54,19.987971486,99.441379116
0.541,19.875911987,99.814588848
0.542,19.765606134,100.19910627
0.543,19.65718982,100.59453315
0.544,19.550823064,101.00045433
0.545,19.446638489,101.41644356
0.546,19.344759675,101.84206411
0.547,19.245218512,102.27687691
0.548,19.148084807,102.72044377
0.549,19.053540962,103.17231404
0.55,18.961770206,103.63201481
0.551,18.872945226,104.09906103
0.552,18.787232684,104.57294982
0.553,18.704669824,105.05317694
0.554,18.625285425,105.53924218
0.555,18.549144424,106.03064447
0.556,18.476230807,106.52689002
0.557,18.406503421,107.02749745
0.558,18.339952955,107.53199396
0.559,18.276523694,108.03991987
0.56,18.216145674,108.55083141
0.561,18.158789032,109.0642964
0.562,18.104470639,109.57988869
0.563,18.05319808,110.09718606
0.564,18.004921557,110.61577722
0.565,17.959561524,111.13526692
0.566,17.917055984,111.65527448
0.567,17.877349226,112.17543226
0.568,17.840376932,112.6953861
0.569,17.806101471,113.21479315
0.57,17.774485653,113.73332011
0.571,17.74548222,114.25064429
0.572,17.719020008,114.76645636
0.573,17.695038532,115.2804601
0.574,17.673490275,115.79236999
0.575,17.654322782,116.30191144
0.576,17.637490886,116.80882
0.577,17.622949272,117.31284084
0.578,17.610645059,117.81372948
0.579,17.600522923,118.31125219
0.58,17.59252962,118.80518565
0.581,17.586617493,119.29531617
0.582,17.582746708,119.78143856
0.583,17.580885957,120.2633549
0.584,17.581011827,120.74087329
0.585,17.583107135,121.21380693
0.586,17.587158256,121.68197341
0.587,17.593151375,122.14519458
0.588,17.601068078,122.6032969
0.589,17.610880714,123.05611245
0.59,17.622548368,123.50348049
0.591,17.636013972,123.94524941
0.592,17.651203066,124.38127885
0.593,17.668024653,124.81144182
0.594,17.68637407,125.23562639
0.595,17.706137404,125.65373689
0.596,17.72719677,126.06569435
0.597,17.749435557,126.47143627
0.598,17.772742778,126.87091578
0.599,17.797016063,127.26410035
0.6,17.822163243,127.65097026
0.601,17.848102691,128.03151701
0.602,17.874762767,128.40574184
0.603,17.902080743,128.77365434
0.604,17.930001521,129.13527125
0.605,17.958476338,129.49061553
0.606,17.987461558,129.83971549
0.607,18.016917587,130.18260419
0.608,18.046807912,130.51931887
0.609,18.077098262,130.84990064
0.61,18.107755898,131.17439413
0.611,18.13874904,131.49284732
0.612,18.17004643,131.80531143
0.613,18.201617056,132.11184078
0.614,18.233430011,132.41249279
0.615,18.265454497,132.70732787
0.616,18.297659918,132.99640939
0.617,18.330016057,133.27980359
0.618,18.362493278,133.55757945
0.619,18.395062735,133.82980855
0.62,18.427696539,134.09656496
0.621,18.460367895,134.35792502
0.622,18.493051179,134.61396716
0.623,18.525721978,134.86477173
0.624,18.558356881,135.11042083
0.625,18.590933271,135.35099815
0.626,18.623430796,135.58658876
0.627,18.655829635,135.81727889
0.628,18.688112343,136.04315571
0.629,18.720261714,136.26430719
0.63,18.752261728,136.48082199
