time,pressure,volume
0,14.863575289,140.871151
0.001,14.886921476,140.87115174
0.002,14.891798694,140.87115248
0.003,14.894697252,140.87115322
0.004,14.894988473,140.87115396
0.005,14.894232852,140.8711547
0.006,14.89284685,140.87115544
0.007,14.890896719,140.87115618
0.008,14.888646175,140.87115692
0.009,14.886512224,140.87115766
0.01,14.884913872,140.8711584
0.011,14.884153899,140.87115914
0.012,14.884361052,140.87115988
0.013,14.88547974,140.87116062
0.014,14.887306821,140.87116137
0.015,14.889551439,140.87116211
0.016,14.89189458,140.87116285
0.017,14.894055341,140.87116359
0.018,14.895843622,140.87116433
0.019,14.897194833,140.87116508
0.02,14.898175221,140.87116582
0.021,14.898932283,140.87116656
0.022,14.899640983,140.87116731
0.023,14.900455745,140.87116805
0.024,14.901481155,140.8711688
0.025,14.902765545,140.87116954
0.026,14.90431273,140.87117029
0.027,14.906102505,140.87117104
0.028,14.908110456,140.87117179
0.029,14.910323048,140.87117253
0.03,14.912746285,140.87117328
0.031,14.915406752,140.87117403
0.032,14.918346191,140.87117478
0.033,14.921617787,140.87117553
0.034,14.925281224,140.87117628
0.035,14.92939868,140.87117703
0.036,14.934032939,140.87117778
0.037,14.939247954,140.87117854
0.038,14.9451102,140.87117929
0.039,14.951689712,140.87118004
0.04,14.959059706,140.8711808
0.041,14.967297738,140.87118155
0.042,14.980222971,140.87416031
0.043,15.013344011,140.88314702
0.044,15.042927962,140.89833334
0.045,15.075467448,140.91910622
0.046,15.110061884,140.94493997
0.047,15.146589321,140.97536159
0.048,15.185273709,141.009886
0.049,15.226240583,141.04802091
0.05,15.269470867,141.08928768
0.051,15.314880756,141.13323273
0.052,15.362384128,141.1794289
0.053,15.411915714,141.22747241
0.054,15.463429295,141.27697951
0.055,15.516890628,141.32758403
0.056,15.572274043,141.37893569
0.057,15.629562261,141.43069853
0.058,15.688748894,141.48254913
0.059,15.749840234,141.53417462
0.06,15.812856542,141.58527057
0.061,15.87782966,141.63553912
0.062,15.944797241,141.68468794
0.063,16.01379943,141.73242963
0.064,16.084876105,141.77848166
0.065,16.158064039,141.82256652
0.066,16.233397076,141.86441214
0.067,16.310907999,141.90375192
0.068,16.39063126,141.94032454
0.069,16.472607354,141.97387324
0.07,16.556882708,142.00414501
0.071,16.643513024,142.03088963
0.072,16.732562706,142.05385891
0.073,16.824102744,142.07280672
0.074,16.918214519,142.08749016
0.075,17.015015288,142.09767333
0.076,17.115282285,142.10311035
0.077,17.222397515,142.1037963
0.078,17.338980973,142.10379701
0.079,17.463687113,142.10379772
0.08,17.595069518,142.10379842
0.081,17.733380101,142.10379912
0.082,17.878642955,142.10379982
0.083,18.03115908,142.10380051
0.084,18.191303674,142.1038012
0.085,18.359392474,142.10380188
0.086,18.53568177,142.10380256
0.087,18.720391465,142.10380324
0.088,18.913733427,142.10380391
0.089,19.11592012,142.10380457
0.09,19.327171075,142.10380523
0.091,19.547710552,142.10380589
0.092,19.77777843,142.10380654
0.093,20.017630358,142.10380718
0.094,20.267537944,142.10380782
0.095,20.527776042,142.10380845
0.096,20.798617084,142.10380907
0.097,21.080340033,142.10380969
0.098,21.373210983,142.1038103
0.099,21.677493006,142.1038109
0.1,21.993448751,142.10381149
0.101,22.321337802,142.10381208
0.102,22.661421519,142.10381265
0.103,23.013956172,142.10381322
0.104,23.379223701,142.10381377
0.105,23.757521857,142.10381432
0.106,24.149162697,142.10381486
0.107,24.554454795,142.10381538
0.108,24.973711891,142.1038159
0.109,25.407243058,142.1038164
0.11,25.855354077,142.10381689
0.111,26.31837514,142.10381737
0.112,26.796623643,142.10381784
0.113,27.290419174,142.10381829
0.114,27.800058045,142.10381873
0.115,28.325841879,142.10381916
0.116,28.86805736,142.10381957
0.117,29.426999386,142.10381996
0.118,30.002955517,142.10382034
0.119,30.596202925,142.10382071
0.12,31.207024893,142.10382106
0.121,31.83569149,142.10382139
0.122,32.482486435,142.10382171
0.123,33.147679043,142.103822
0.124,33.831518243,142.10382228
0.125,34.534224826,142.10382254
0.126,35.256024863,142.10382278
0.127,35.997140364,142.103823
0.128,36.757771351,142.1038232
0.129,37.538129779,142.10382338
0.13,38.338398463,142.10382354
0.131,39.158744564,142.10382367
0.132,39.999327949,142.10382378
0.133,40.860307244,142.10382387
0.134,41.741816153,142.10382394
0.135,42.643958616,142.10382398
0.136,43.566845779,142.103824
0.137,44.510555184,142.10382399
0.138,45.475152048,142.10382395
0.139,46.460685054,142.10382389
0.14,47.467191265,142.1038238
0.141,48.494698621,142.10382369
0.142,49.543205324,142.10382354
0.143,50.612693801,142.10382337
0.144,51.703132413,142.10382316
0.145,52.814463868,142.10382293
0.146,53.946621558,142.10382267
0.147,55.099503973,142.10382237
0.148,56.27298333,142.10382205
0.149,57.466918173,142.10382169
0.15,58.681146714,142.10382129
0.151,59.915408799,142.10382087
0.152,61.169350066,142.10382041
0.153,62.442508,142.10381992
0.154,63.734359338,142.10381939
0.155,65.044317642,142.10381882
0.156,66.371729077,142.10381822
0.157,67.715827767,142.10381759
0.158,68.756388593,142.06498303
0.159,69.465007862,141.92994854
0.16,70.002672327,141.73122796
0.161,70.425486196,141.49249356
0.162,70.781027306,141.22810469
0.163,71.098089349,140.9466114
0.164,71.394816358,140.65299671
0.165,71.6825955,140.35003442
0.166,71.968341714,140.03917456
0.167,72.255943535,139.72111818
0.168,72.547232901,139.39619249
0.169,72.842658073,139.06459158
0.17,73.141869986,138.72651154
0.171,73.444193384,138.38220668
0.172,73.74898035,138.03199002
0.173,74.055779595,137.67620499
0.174,74.36435257,137.31519466
0.175,74.67460949,136.94927994
0.176,74.986547294,136.57874901
0.177,75.300134724,136.20386071
0.178,75.615275607,135.82485609
0.179,75.931858853,135.44196311
0.18,76.249696157,135.05540735
0.181,76.568630409,134.66541083
0.182,76.888512987,134.27219121
0.183,77.209203472,133.87596004
0.184,77.530573968,133.47692311
0.185,77.852486173,133.07528108
0.186,78.174857061,132.67122547
0.187,78.497594145,132.26493795
0.188,78.820539768,131.85659874
0.189,79.143598787,131.44638297
0.19,79.466680817,131.03445873
0.191,79.789680737,130.62098819
0.192,80.112476842,130.20613158
0.193,80.434979013,129.79004442
0.194,80.757126419,129.37287406
0.195,81.078837662,128.95476143
0.196,81.400017957,128.53584366
0.197,81.720573869,128.11625579
0.198,82.040438292,127.69612782
0.199,82.359521882,127.27558511
0.2,82.67770058,126.85475623
0.201,82.994912712,126.43376528
0.202,83.311081206,126.01273119
0.203,83.626073307,125.59177694
0.204,83.939887294,125.17101583
0.205,84.252417987,124.75055954
0.206,84.563623664,124.33051501
0.207,84.873362579,123.91099188
0.208,85.18158741,123.49209968
0.209,85.48827765,123.07393724
0.21,85.793347122,122.65660213
0.211,86.096725824,122.24019206
0.212,86.398344675,121.82480241
0.213,86.698180621,121.41052306
0.214,86.99613322,120.99744466
0.215,87.292188796,120.58565288
0.216,87.586292616,120.17523011
0.217,87.878413102,119.76625414
0.218,88.168488653,119.35880264
0.219,88.456485206,118.95294879
0.22,88.742358338,118.54876434
0.221,89.026053289,118.14631977
0.222,89.307446524,117.74569236
0.223,89.586561284,117.34695341
0.224,89.863351698,116.95016852
0.225,90.137788534,116.55540263
0.226,90.409860207,116.16271454
0.227,90.679510126,115.77216297
0.228,90.946698497,115.3838074
0.229,91.21142501,114.99770068
0.23,91.473612344,114.6138981
0.231,91.733243651,114.23245443
0.232,91.990255954,113.85342381
0.233,92.244651737,113.47685796
0.234,92.496402747,113.10280484
0.235,92.745455663,112.73131389
0.236,92.991805825,112.3624314
0.237,93.235434841,111.9962014
0.238,93.476317544,111.63266554
0.239,93.714432103,111.27186488
0.24,93.949750698,110.91383906
0.241,94.182245914,110.55862781
0.242,94.411899363,110.20626924
0.243,94.638702371,109.85679906
0.244,94.862630455,109.51025169
0.245,95.08366372,109.1666613
0.246,95.301793585,108.8260597
0.247,95.516998909,108.48847799
0.248,95.729259573,108.15394683
0.249,95.938559833,107.82249597
0.25,96.144882426,107.49415439
0.251,96.348209121,107.16895049
0.252,96.54851913,106.84691252
0.253,96.745791975,106.52806862
0.254,96.940010725,106.21244645
0.255,97.131161444,105.90007285
0.256,97.31922952,105.5909739
0.257,97.504198612,105.28517514
0.258,97.686048918,104.98270212
0.259,97.864767379,104.68357992
0.26,98.04034156,104.38783265
0.261,98.212760811,104.09548368
0.262,98.382016574,103.80655518
0.263,98.548098432,103.52106858
0.264,98.710993585,103.23904473
0.265,98.870681101,102.96050514
0.266,99.027151878,102.68547079
0.267,99.180394545,102.41396207
0.268,99.330397365,102.14599895
0.269,99.477146954,101.88160122
0.27,99.62062925,101.62078863
0.271,99.760826473,101.3635813
0.272,99.89772868,101.10999905
0.273,100.03133041,100.86006073
0.274,100.16162612,100.61378399
0.275,100.28860085,100.37118662
0.276,100.41223305,100.13228732
0.277,100.53250498,99.897105606
0.278,100.6494041,99.665660974
0.279,100.76291329,99.437973079
0.28,100.87301219,99.214062382
0.281,100.97968534,98.993949628
0.282,101.08291334,98.777655951
0.283,101.1826754,98.565203193
0.284,101.2789563,98.356613381
0.285,101.3717369,98.151908643
0.286,101.46098865,97.951112539
0.287,101.54668759,97.754249738
0.288,101.62881957,97.561344695
0.289,101.70736422,97.372421785
0.29,101.7822946,97.1875066
0.291,101.85359455,97.006624619
0.292,101.92124041,96.829801709
0.293,101.98521243,96.657063937
0.294,102.04547273,96.488439141
0.295,102.10198829,96.323957208
0.296,102.15473195,96.163648509
0.297,102.20365754,96.007545973
0.298,102.24872824,95.855684483
0.299,102.28990581,95.708100284
0.3,102.32715143,95.564831139
0.301,102.36043362,95.425915366
0.302,102.38971064,95.291392323
0.303,102.41492752,95.161304632
0.304,102.43605612,95.035694891
0.305,102.45305598,94.914606259
0.306,102.46589434,94.798082283
0.307,102.47453177,94.686166701
0.308,102.47892686,94.578904556
0.309,102.47904692,94.476340672
0.31,102.47484364,94.378521076
0.311,102.4662566,94.285494763
0.312,102.45323106,94.197313065
0.313,102.4357177,94.114028815
0.314,102.41366989,94.035695398
0.315,102.38701696,93.962369067
0.316,102.3556979,93.894108967
0.317,102.31964527,93.830976283
0.318,102.27879337,93.773034792
0.319,102.23310094,93.720347972
0.32,102.1825339,93.67297666
0.321,102.12704244,93.630981629
0.322,102.06656577,93.594424309
0.323,102.00107961,93.56336324
0.324,101.93051437,93.53785738
0.325,101.85480936,93.517964886
0.326,101.77388587,93.503739821
0.327,101.68759958,93.495223044
0.328,101.59514246,93.492362045
0.329,101.46012789,93.492360931
0.33,101.28632427,93.492359822
0.331,101.08026125,93.492358717
0.332,100.84627723,93.492357618
0.333,100.58826341,93.492356524
0.334,100.30932297,93.492355438
0.335,100.01217368,93.492354359
0.336,99.699326312,93.492353287
0.337,99.373081713,93.492352224
0.338,99.035454666,93.492351169
0.339,98.688120421,93.492350123
0.34,98.332402726,93.492349085
0.341,97.969352683,93.492348057
0.342,97.599774837,93.492347038
0.343,97.224290564,93.492346028
0.344,96.84340105,93.492345028
0.345,96.457487643,93.492344038
0.346,96.066859401,93.492343057
0.347,95.671706232,93.492342087
0.348,95.27213224,93.492341126
0.349,94.868194139,93.492340176
0.35,94.459881848,93.492339236
0.351,94.04715804,93.492338307
0.352,93.629960196,93.492337387
0.353,93.208189276,93.492336479
0.354,92.781793568,93.492335582
0.355,92.350717659,93.492334695
0.356,91.914892819,93.492333819
0.357,91.474286228,93.492332955
0.358,91.028856652,93.492332102
0.359,90.578574086,93.49233126
0.36,90.123471622,93.49233043
0.361,89.663578409,93.492329611
0.362,89.198926337,93.492328805
0.363,88.729553221,93.49232801
0.364,88.255488863,93.492327227
0.365,87.776804795,93.492326456
0.366,87.293608062,93.492325698
0.367,86.805966315,93.492324952
0.368,86.314014301,93.492324219
0.369,85.817858916,93.492323498
0.37,85.317590605,93.49232279
0.371,84.813321524,93.492322095
0.372,84.305203729,93.492321413
0.373,83.793356685,93.492320744
0.374,83.277891166,93.492320088
0.375,82.758968266,93.492319446
0.376,82.236688299,93.492318816
0.377,81.711176574,93.4923182
0.378,81.182552928,93.492317598
0.379,80.65095669,93.492317009
0.38,80.116509438,93.492316434
0.381,79.579320817,93.492315873
0.382,79.039544588,93.492315325
0.383,78.49728903,93.492314792
0.384,77.952683716,93.492314272
0.385,77.405850113,93.492313766
0.386,76.856907793,93.492313275
0.387,76.30597808,93.492312797
0.388,75.753160449,93.492312334
0.389,75.198558121,93.492311884
0.39,74.642272352,93.492311449
0.391,74.084416513,93.492311029
0.392,73.525102713,93.492310622
0.393,72.964432704,93.492310231
0.394,72.40251316,93.492309853
0.395,71.839427198,93.49230949
0.396,71.275238493,93.492309141
0.397,70.710046636,93.492308807
0.398,70.143956995,93.492308488
0.399,69.577067345,93.492308183
0.4,69.009489331,93.492307892
0.401,68.44131053,93.492307616
0.402,67.872620243,93.492307355
0.403,67.303510784,93.492307108
0.404,66.734065742,93.492306876
0.405,66.164369681,93.492306658
0.406,65.594508111,93.492306455
0.407,65.024555647,93.492306267
0.408,64.454587905,93.492306094
0.409,63.884679444,93.492305935
0.41,63.314910851,93.49230579
0.411,62.745366699,93.49230566
0.412,62.176136752,93.492305545
0.413,61.607303022,93.492305445
0.414,61.038930729,93.492305359
0.415,60.4710853,93.492305287
0.416,59.903878038,93.49230523
0.417,59.337399988,93.492305188
0.418,58.771715489,93.49230516
0.419,58.206900713,93.492305147
0.42,57.643023294,93.492305148
0.421,57.080153511,93.492305164
0.422,56.518346475,93.492305194
0.423,55.957661659,93.492305238
0.424,55.398188675,93.492305297
0.425,54.839998649,93.49230537
0.426,54.283170673,93.492305457
0.427,53.727779434,93.492305559
0.428,53.17390721,93.492305675
0.429,52.621632839,93.492305805
0.43,52.071013783,93.492305949
0.431,51.522116427,93.492306107
0.432,50.975013497,93.492306279
0.433,50.429754281,93.492306465
0.434,49.886414571,93.492306665
0.435,49.345051257,93.492306879
0.436,48.805742087,93.492307107
0.437,48.268536122,93.492307349
0.438,47.733488602,93.492307604
0.439,47.200648693,93.492307873
0.44,46.67007993,93.492308155
0.441,46.141835249,93.492308451
0.442,45.61600253,93.492308761
0.443,45.092639311,93.492309084
0.444,44.571784884,93.49230942
0.445,44.053483163,93.492309769
0.446,43.537796564,93.492310132
0.447,43.024765988,93.492310508
0.448,42.514446173,93.492310897
0.449,42.006864686,93.492311299
0.45,41.50209525,93.492311713
0.451,41.000173822,93.492312141
0.452,40.501189427,93.492312581
0.453,40.005203002,93.492313034
0.454,39.512265166,93.4923135
0.455,39.02241874,93.492313978
0.456,38.535737866,93.492314468
0.457,38.052281279,93.492314971
0.458,37.572097887,93.492315486
0.459,37.095227689,93.492316014
0.46,36.621727287,93.492316553
0.461,36.151626498,93.492317104
0.462,35.684967767,93.492317668
0.463,35.221785749,93.492318243
0.464,34.762148347,93.492318829
0.465,34.306072839,93.492319428
0.466,33.853606203,93.492320037
0.467,33.404859042,93.492320659
0.468,32.959849369,93.492321291
0.469,32.518655177,93.492321935
0.47,32.081289616,93.49232259
0.471,31.647795585,93.492323256
0.472,31.218205739,93.492323933
0.473,30.792565082,93.49232462
0.474,30.370903711,93.492325319
0.475,29.953248561,93.492326028
0.476,29.53962955,93.492326747
0.477,29.130097742,93.492327477
0.478,28.72468745,93.492328217
0.479,28.323384287,93.492328967
0.48,27.926211063,93.492329727
0.481,27.533174536,93.492330498
0.482,27.144313245,93.492331278
0.483,26.759643242,93.492332067
0.484,26.379184304,93.492332867
0.485,26.002920597,93.492333676
0.486,25.630841603,93.492334494
0.487,25.262983747,93.492335321
0.488,24.899353716,93.492336158
0.489,24.53995342,93.492337004
0.49,24.184811297,93.492337858
0.491,23.833914741,93.492338722
0.492,23.487267169,93.492339594
0.493,23.144851048,93.492340474
0.494,22.806672378,93.492341364
0.495,22.47270854,93.492342261
0.496,22.142959876,93.492343167
0.497,21.817424581,93.492344081
0.498,21.496093263,93.492345003
0.499,21.178944936,93.492345933
0.5,20.865984801,93.49234687
0.501,20.557188415,93.492347816
0.502,20.25255974,93.492348769
0.503,19.952090123,93.492349729
0.504,19.655759301,93.492350697
0.505,19.36351688,93.492351672
0.506,19.078481662,93.492692814
0.507,18.901258098,93.510585145
0.508,18.724265956,93.551522435
0.509,18.555551611,93.613778206
0.51,18.393221607,93.69558544
0.511,18.234633382,93.795606254
0.512,18.078960872,93.912721735
0.513,17.92621741,94.045874878
0.514,17.77641393,94.194046974
0.515,17.629391708,94.356277309
0.516,17.484859803,94.531681034
0.517,17.342522925,94.719450479
0.518,17.20212898,94.918847624
0.519,17.063438484,95.129198139
0.52,16.926232392,95.349887771
0.521,16.790312057,95.5803559
0.522,16.655492235,95.820092145
0.523,16.521593177,96.068633653
0.524,16.388513529,96.325555309
0.525,16.25622744,96.590457442
0.526,16.124765731,96.862956866
0.527,15.994151446,97.142685079
0.528,15.864476937,97.429281511
0.529,15.735845952,97.722387868
0.53,15.608323357,98.021654821
0.531,15.482068953,98.326730355
0.532,15.357193577,98.637263681
0.533,15.233814275,98.952904019
0.534,15.111918926,99.273313634
0.535,14.99170023,99.598154694
0.536,14.873249161,99.927087219
0.537,14.756707744,100.25977044
0.538,14.642208589,100.59586155
0.539,14.52990463,100.93501328
0.54,14.419895951,101.27687903
0.541,14.312250799,101.62111764
0.542,14.207045248,101.96739332
0.543,14.104340203,102.31537673
0.544,14.004197103,102.66474491
0.545,13.906659059,103.0151818
0.546,13.811669235,103.36639003
0.547,13.719254559,103.71808478
0.548,13.629440267,104.06998945
0.549,13.54222492,104.42183838
0.55,13.457583316,104.77337981
0.551,13.375501104,105.12437506
0.552,13.295946399,105.47459893
0.553,13.218887527,105.82383953
0.554,13.144286499,106.1718988
0.555,13.072131154,106.51858911
0.556,13.002412004,106.86373155
0.557,12.935114127,107.2071559
0.558,12.87022189,107.54870086
0.559,12.807702836,107.88821469
0.56,12.747520472,108.22555639
0.561,12.689648006,108.56059388
0.562,12.63405736,108.89320352
0.563,12.580723458,109.22326941
0.564,12.529622041,109.55068279
0.565,12.480724103,109.87534213
0.566,12.433995398,110.1971535
0.567,12.389398949,110.51603065
0.568,12.346896976,110.83189479
0.569,12.306451868,111.14467423
0.57,12.268026506,111.45430401
0.571,12.231584324,111.76072547
0.572,12.197089414,112.06388588
0.573,12.164506822,112.36373805
0.574,12.133802212,112.66023995
0.575,12.104941349,112.95335444
0.576,12.077889747,113.24304906
0.577,12.052611964,113.52929589
0.578,12.029071009,113.81207153
0.579,12.007227876,114.09135718
0.58,11.987041068,114.36713866
0.581,11.96846601,114.63940667
0.582,11.951454843,114.90815694
0.583,11.935956897,115.17339045
0.584,11.921918991,115.43511349
0.585,11.909285605,115.69333781
0.586,11.898000201,115.94808052
0.587,11.888005891,116.19936395
0.588,11.879245993,116.44721542
0.589,11.871664942,116.69166694
0.59,11.865208938,116.93275477
0.591,11.859826301,117.170519
0.592,11.855467823,117.40500308
0.593,11.852087121,117.63625334
0.594,11.849640882,117.86431844
0.595,11.848088315,118.08924897
0.596,11.847391074,118.31109704
0.597,11.8475132,118.52991593
0.598,11.848420628,118.74575975
0.599,11.850081081,118.95868321
0.6,11.852464123,119.16874139
0.601,11.85554103,119.37598944
0.602,11.859284261,119.58048249
0.603,11.863667192,119.78227552
0.604,11.868664067,119.98142325
0.605,11.87425005,120.17798007
0.606,11.880401363,120.37199993
0.607,11.8870954,120.56353625
0.608,11.894310441,120.75264181
0.609,11.902025479,120.93936869
0.61,11.910219931,121.12376831
0.611,11.91887353,121.30589136
0.612,11.927966198,121.48578791
0.613,11.937477985,121.66350736
0.614,11.947389237,121.83909853
0.615,11.957680818,122.01260958
0.616,11.968334321,122.18408804
0.617,11.979332205,122.3535807
0.618,11.990657842,122.52113359
0.619,12.00229548,122.68679187
0.62,12.014230161,122.85059982
0.621,12.026447652,123.01260079
0.622,12.038934376,123.17283718
0.623,12.051677344,123.33135043
0.624,12.064664102,123.48818098
0.625,12.077882683,123.64336831
0.626,12.091321581,123.79695092
0.627,12.104969734,123.94896635
0.628,12.118816525,124.09945118
0.629,12.132851782,124.24844102
0.63,12.147065783,124.39597052
