time,pressure,volume
0,17.443369236,140.871151
0.001,18.736707104,141.35046573
0.002,18.881907319,141.81637742
0.003,19.068074051,142.25221889
0.004,19.207474862,142.66369231
0.005,19.332328555,143.05434512
0.006,19.461200516,143.42425985
0.007,19.58985257,143.77352487
0.008,19.711230469,144.10319873
0.009,19.822339411,144.41485809
0.01,19.923117199,144.71012805
0.011,20.014490549,144.99049189
0.012,20.09755341,145.25725442
0.013,20.173499702,145.51153426
0.014,20.243649767,145.75425205
0.015,20.309308002,145.98613203
0.016,20.371524178,146.20773352
0.017,20.43092731,146.41950695
0.018,20.487724312,146.62185407
0.019,20.541839231,146.81517184
0.02,20.59310944,146.99987002
0.021,20.641449355,147.17636492
0.022,20.68693498,147.34505943
0.023,20.729805162,147.506321
0.024,20.770402985,147.66046633
0.025,20.809092077,147.80775729
0.026,20.846180702,147.94840747
0.027,20.881875174,148.08259575
0.028,20.916270229,148.210482
0.029,20.949366861,148.33222067
0.03,20.981107836,148.44796973
0.031,21.011415185,148.55789427
0.032,21.040221781,148.66216574
0.033,21.067490907,148.76095796
0.034,21.093223923,148.85444218
0.035,21.117462674,148.94278166
0.036,21.140284009,149.02612698
0.037,21.161789183,149.1046128
0.038,21.182090949,149.17835638
0.039,21.201302446,149.2474577
0.04,21.21952842,149.31200089
0.041,21.236861932,149.37205616
0.042,21.253381829,149.42768211
0.043,21.269154837,149.47892776
0.044,21.284239113,149.5258342
0.045,21.29868798,149.56843559
0.046,21.312553157,149.60675978
0.047,21.325887294,149.64082853
0.048,21.338745149,149.67065771
0.049,21.351184465,149.69625731
0.05,21.363266079,149.71763188
0.051,21.375056119,149.73478122
0.052,21.386629138,149.7477024
0.053,21.398079098,149.75639616
0.054,21.409577277,149.76089594
0.055,21.422000508,149.76166268
0.056,21.446815789,149.76166331
0.057,21.47212698,149.76166394
0.058,21.500968081,149.76166457
0.059,21.532740236,149.76166519
0.06,21.567470736,149.76166582
0.061,21.605412705,149.76166644
0.062,21.646739194,149.76166706
0.063,21.691536233,149.76166768
0.064,21.739854948,149.76166829
0.065,21.791744542,149.7616689
0.066,21.847264706,149.76166951
0.067,21.906490079,149.76167012
0.068,21.969512552,149.76167072
0.069,22.036441011,149.76167132
0.07,22.1073964,149.76167191
0.071,22.182508661,149.76167251
0.072,22.261912483,149.76167309
0.073,22.345743879,149.76167368
0.074,22.434138375,149.76167426
0.075,22.527230728,149.76167484
0.076,22.625158816,149.76167541
0.077,22.728066228,149.76167598
0.078,22.836101264,149.76167654
0.079,22.949421013,149.7616771
0.08,23.068188624,149.76167766
0.081,23.19257616,149.76167821
0.082,23.322763437,149.76167875
0.083,23.458938089,149.76167929
0.084,23.601288981,149.76167983
0.085,23.750011374,149.76168036
0.086,23.905305818,149.76168088
0.087,24.067379487,149.7616814
0.088,24.236441476,149.76168191
0.089,24.412707928,149.76168241
0.09,24.59640218,149.76168291
0.091,24.787752715,149.7616834
0.092,24.986990036,149.76168389
0.093,25.194346418,149.76168436
0.094,25.410058875,149.76168483
0.095,25.634366753,149.7616853
0.096,25.867517942,149.76168575
0.097,26.109760769,149.7616862
0.098,26.361345552,149.76168663
0.099,26.622526868,149.76168706
0.1,26.893559442,149.76168748
0.101,27.174699626,149.76168789
0.102,27.466205119,149.7616883
0.103,27.76833151,149.76168869
0.104,28.081340914,149.76168907
0.105,28.405509369,149.76168944
0.106,28.741103672,149.7616898
0.107,29.088391846,149.76169015
0.108,29.447642858,149.76169049
0.109,29.819110612,149.76169082
0.11,30.20306632,149.76169114
0.111,30.599771125,149.76169144
0.112,31.009485989,149.76169173
0.113,31.432458941,149.76169201
0.114,31.86894413,149.76169228
0.115,32.319192247,149.76169253
0.116,32.783452408,149.76169276
0.117,33.261980716,149.76169299
0.118,33.755020511,149.7616932
0.119,34.262804208,149.76169339
0.12,34.785553508,149.76169357
0.121,35.323498429,149.76169373
0.122,35.876854707,149.76169387
0.123,36.445841054,149.761694
0.124,37.03066291,149.76169411
0.125,37.631521116,149.76169421
0.126,38.248615171,149.76169428
0.127,38.882140074,149.76169434
0.128,39.532284529,149.76169438
0.129,40.199226668,149.7616944
0.13,40.883128526,149.7616944
0.131,41.584144116,149.76169438
0.132,42.302415488,149.76169434
0.133,43.038081724,149.76169428
0.134,43.791275672,149.76169419
0.135,44.56211211,149.76169409
0.136,45.350700454,149.76169396
0.137,46.157158423,149.76169381
0.138,46.981584537,149.76169364
0.139,47.824053253,149.76169344
0.14,48.684638491,149.76169322
0.141,49.563411316,149.76169297
0.142,50.460430904,149.7616927
0.143,51.375748132,149.7616924
0.144,52.309402366,149.76169208
0.145,53.261425047,149.76169173
0.146,54.231835914,149.76169135
0.147,55.220640868,149.76169094
0.148,56.227837633,149.76169051
0.149,57.253411435,149.76169005
0.15,58.297350168,149.76168956
0.151,59.359637284,149.76168904
0.152,60.440249743,149.76168849
0.153,61.539156212,149.76168791
0.154,62.546899073,149.74871459
0.155,63.197890899,149.65424512
0.156,63.720542923,149.4902018
0.157,64.134734755,149.27927364
0.158,64.479617797,149.03669664
0.159,64.783438402,148.77201578
0.16,65.064435942,148.49109163
0.161,65.334073064,148.19746979
0.162,65.599290937,147.89328236
0.163,65.864131217,147.57982231
0.164,66.130765915,147.25790565
0.165,66.400281466,146.92808737
0.166,66.673138725,146.59078218
0.167,66.949500241,146.24632846
0.168,67.229347005,145.89502228
0.169,67.512612386,145.53713283
0.17,67.799183098,145.17291061
0.171,68.088913104,144.80259464
0.172,68.381650847,144.42641481
0.173,68.677251925,144.04459303
0.174,68.975569751,143.65734392
0.175,69.276497567,143.26487205
0.176,69.5799443,142.86736911
0.177,69.885803307,142.46501879
0.178,70.194002754,142.05799201
0.179,70.50441371,141.64645487
0.18,70.816936439,141.23056727
0.181,71.131406159,140.81048984
0.182,71.447708034,140.38638027
0.183,71.765700508,139.9583958
0.184,72.08525143,139.52669247
0.185,72.406266774,139.09142118
0.186,72.728621496,138.65273044
0.187,73.05218078,138.21076867
0.188,73.37683964,137.76568134
0.189,73.702443949,137.31761546
0.19,74.028873076,136.86671796
0.191,74.3560141,136.41313406
0.192,74.683740737,135.9570074
0.193,75.011933229,135.49848092
0.194,75.340447753,135.03769988
0.195,75.66917958,134.57480671
0.196,75.998005938,134.10994437
0.197,76.326823408,133.64325191
0.198,76.655495317,133.17487001
0.199,76.983892089,132.70494094
0.2,77.311916091,132.23360432
0.201,77.639487797,131.76099457
0.202,77.966516223,131.287243
0.203,78.29288737,130.81247941
0.204,78.618506754,130.33683263
0.205,78.943269851,129.86042985
0.206,79.267087115,129.3833969
0.207,79.58984085,128.90585876
0.208,79.91145372,128.42793923
0.209,80.231846842,127.94975772
0.21,80.55091369,127.47143338
0.211,80.868591937,126.99308242
0.212,81.184805967,126.51481586
0.213,81.499441913,126.03674873
0.214,81.812433476,125.55899158
0.215,82.123733358,125.08165044
0.216,82.43323498,124.60483014
0.217,82.740823549,124.12864156
0.218,83.046467951,123.65318815
0.219,83.350057705,123.1785737
0.22,83.65151965,122.70490347
0.221,83.950807739,122.23227627
0.222,84.247779543,121.76079583
0.223,84.542400955,121.29056506
0.224,84.834636016,120.82167673
0.225,85.124424036,120.35422373
0.226,85.411701575,119.88829641
0.227,85.696400996,119.42398272
0.228,85.978460773,118.96137207
0.229,86.25791098,118.50054195
0.23,86.534653069,118.04156859
0.231,86.808580394,117.58453805
0.232,87.079742609,117.12952267
0.233,87.348010324,116.67659918
0.234,87.613357464,116.22584318
0.235,87.875735601,115.7773288
0.236,88.135154291,115.33112173
0.237,88.391582701,114.88728458
0.238,88.644961282,114.44588049
0.239,88.895268519,114.00696946
0.24,89.142443969,113.57061265
0.241,89.38645386,113.13687005
0.242,89.627274733,112.70579958
0.243,89.864884762,112.27745567
0.244,90.09922898,111.85189349
0.245,90.330272358,111.42916839
0.246,90.557993622,111.00933331
0.247,90.782382192,110.59243774
0.248,91.003422724,110.17852814
0.249,91.221087676,109.76764988
0.25,91.435355848,109.35984693
0.251,91.646193831,108.95516288
0.252,91.85359603,108.55363941
0.253,92.057548337,108.15531535
0.254,92.258032182,107.76022852
0.255,92.455032452,107.36841536
0.256,92.648533399,106.97991107
0.257,92.838522056,106.59474956
0.258,93.02498833,106.21296315
0.259,93.207923105,105.83458262
0.26,93.387319004,105.45963716
0.261,93.563168169,105.08815451
0.262,93.735462453,104.72016123
0.263,93.904195393,104.35568274
0.264,94.069367879,103.99474249
0.265,94.230979027,103.63736227
0.266,94.389025454,103.28356261
0.267,94.543504414,102.93336302
0.268,94.69441596,102.58678181
0.269,94.84176327,102.24383578
0.27,94.985550675,101.90454014
0.271,95.125776824,101.56890929
0.272,95.262446331,101.23695654
0.273,95.395558853,100.90869432
0.274,95.52510975,100.58413518
0.275,95.651099686,100.26329114
0.276,95.773525368,99.946174036
0.277,95.892381819,99.632795935
0.278,96.007671475,99.323168382
0.279,96.119398553,99.017301941
0.28,96.227567335,98.715206404
0.281,96.332181764,98.41689075
0.282,96.433246197,98.122363387
0.283,96.530768991,97.83163166
0.284,96.624755545,97.544702165
0.285,96.715211455,97.261580955
0.286,96.802140595,96.982273733
0.287,96.885545294,96.706786081
0.288,96.965431031,96.43512331
0.289,97.041802092,96.167290314
0.29,97.11466253,95.903291944
0.291,97.184018545,95.643132499
0.292,97.249874324,95.386816189
0.293,97.312229436,95.134347453
0.294,97.371082727,94.885731363
0.295,97.426436046,94.640973091
0.296,97.478293795,94.400077813
0.297,97.526669295,94.163049312
0.298,97.571559882,93.929891791
0.299,97.612968956,93.70060964
0.3,97.650898816,93.47520728
0.301,97.685344364,93.253689955
0.302,97.716307857,93.036063257
0.303,97.743792524,92.822332543
0.304,97.767799654,92.612503318
0.305,97.788333017,92.406580871
0.306,97.805382474,92.204571545
0.307,97.818922216,92.006484866
0.308,97.82893287,91.812333059
0.309,97.835408569,91.622129016
0.31,97.838343607,91.435885814
0.311,97.837736312,91.253616377
0.312,97.833582737,91.075333419
0.313,97.825876351,90.901050027
0.314,97.814614364,90.730779191
0.315,97.79978934,90.56453416
0.316,97.78138644,90.402329261
0.317,97.759389574,90.244180287
0.318,97.733774954,90.090104916
0.319,97.704510541,89.940123818
0.32,97.671572498,89.794259696
0.321,97.634935083,89.652536808
0.322,97.594565238,89.514981734
0.323,97.550430932,89.381623374
0.324,97.502503283,89.252492183
0.325,97.450759619,89.127619361
0.326,97.395178849,89.0070363
0.327,97.33572851,88.890775633
0.328,97.272356425,88.778873586
0.329,97.205026581,88.671368784
0.33,97.133705617,88.568300695
0.331,97.058361942,88.469709641
0.332,96.978958577,88.37563713
0.333,96.895469699,88.28612473
0.334,96.807850046,88.201215521
0.335,96.716058719,88.120954526
0.336,96.620052158,88.045388086
0.337,96.519777864,87.974565139
0.338,96.415184331,87.908536714
0.339,96.306207737,87.847357253
0.34,96.192794441,87.791083454
0.341,96.074898509,87.739772107
0.342,95.952465344,87.693483661
0.343,95.825455402,87.6522761
0.344,95.693823946,87.616207875
0.345,95.557513453,87.585338521
0.346,95.416487299,87.559726427
0.347,95.270701316,87.539427056
0.348,95.120083815,87.524493384
0.349,94.964528809,87.514968955
0.35,94.803658608,87.510844394
0.351,94.613819553,87.51072296
0.352,94.383741403,87.51072195
0.353,94.122320741,87.510720944
0.354,93.833473045,87.510719945
0.355,93.521005877,87.510718952
0.356,93.187978148,87.510717967
0.357,92.836964874,87.510716989
0.358,92.470297768,87.51071602
0.359,92.090127778,87.510715059
0.36,91.698363945,87.510714107
0.361,91.296622846,87.510713164
0.362,90.886246595,87.51071223
0.363,90.468315316,87.510711306
0.364,90.043688482,87.510710392
0.365,89.613074897,87.510709488
0.366,89.177069278,87.510708594
0.367,88.736140938,87.51070771
0.368,88.290667684,87.510706836
0.369,87.840944664,87.510705973
0.37,87.387195961,87.510705121
0.371,86.929574123,87.510704279
0.372,86.468173506,87.510703448
0.373,86.003059156,87.510702628
0.374,85.534275743,87.510701819
0.375,85.061848829,87.510701021
0.376,84.585797024,87.510700235
0.377,84.106132649,87.510699459
0.378,83.622881648,87.510698695
0.379,83.136056918,87.510697943
0.38,82.645686105,87.510697202
0.381,82.151803074,87.510696473
0.382,81.654450399,87.510695755
0.383,81.153699865,87.51069505
0.384,80.649613609,87.510694356
0.385,80.142257197,87.510693675
0.386,79.631704243,87.510693005
0.387,79.118058866,87.510692348
0.388,78.601408287,87.510691703
0.389,78.081860509,87.510691071
0.39,77.559534516,87.510690451
0.391,77.034535316,87.510689844
0.392,76.506968483,87.510689249
0.393,75.976936574,87.510688667
0.394,75.444558991,87.510688098
0.395,74.909940815,87.510687542
0.396,74.373203835,87.510686998
0.397,73.834468151,87.510686468
0.398,73.293857963,87.51068595
0.399,72.751469232,87.510685446
0.4,72.207417625,87.510684954
0.401,71.661836409,87.510684476
0.402,71.114810142,87.510684011
0.403,70.56645638,87.510683559
0.404,70.01688613,87.51068312
0.405,69.466216035,87.510682695
0.406,68.914558999,87.510682283
0.407,68.362001916,87.510681884
0.408,67.808667369,87.510681499
0.409,67.254646566,87.510681127
0.41,66.700048546,87.510680769
0.411,66.144970738,87.510680424
0.412,65.589518462,87.510680092
0.413,65.033770176,87.510679774
0.414,64.477816866,87.510679469
0.415,63.921734168,87.510679178
0.416,63.365602021,87.5106789
0.417,62.809503442,87.510678636
0.418,62.25352167,87.510678385
0.419,61.697736143,87.510678148
0.42,61.142200007,87.510677924
0.421,60.586992306,87.510677714
0.422,60.032191894,87.510677517
0.423,59.477898389,87.510677333
0.424,58.924181518,87.510677163
0.425,58.371099514,87.510677007
0.426,57.818730356,87.510676864
0.427,57.267155736,87.510676734
0.428,56.716437319,87.510676617
0.429,56.166654404,87.510676514
0.43,55.617865851,87.510676424
0.431,55.070143052,87.510676348
0.432,54.523551562,87.510676284
0.433,53.978159162,87.510676234
0.434,53.434041088,87.510676198
0.435,52.891249992,87.510676174
0.436,52.349857568,87.510676164
0.437,51.809934204,87.510676166
0.438,51.271547426,87.510676182
0.439,50.734760574,87.51067621
0.44,50.199657295,87.510676252
0.441,49.666299616,87.510676307
0.442,49.134744527,87.510676374
0.443,48.605053225,87.510676455
0.444,48.077289843,87.510676548
0.445,47.551506041,87.510676654
0.446,47.027753837,87.510676772
0.447,46.506082745,87.510676904
0.448,45.986538248,87.510677047
0.449,45.469180848,87.510677204
0.45,44.954050075,87.510677373
0.451,44.441183235,87.510677554
0.452,43.930625541,87.510677748
0.453,43.422407369,87.510677954
0.454,42.916603073,87.510678172
0.455,42.413263524,87.510678402
0.456,41.912414364,87.510678645
0.457,41.414119865,87.510678899
0.458,40.918424593,87.510679166
0.459,40.425359522,87.510679444
0.46,39.93498014,87.510679734
0.461,39.447316383,87.510680037
0.462,38.96240629,87.51068035
0.463,38.480310836,87.510680676
0.464,38.001070015,87.510681013
0.465,37.524733792,87.510681361
0.466,37.051343184,87.510681721
0.467,36.580932195,87.510682092
0.468,36.113558775,87.510682475
0.469,35.649300122,87.510682868
0.47,35.188209225,87.510683273
0.471,34.730329825,87.510683689
0.472,34.275699989,87.510684115
0.473,33.824342533,87.510684553
0.474,33.376326278,87.510685001
0.475,32.931699709,87.51068546
0.476,32.490510689,87.510685929
0.477,32.052814926,87.510686409
0.478,31.618656115,87.5106869
0.479,31.188099015,87.5106874
0.48,30.761180841,87.510687911
0.481,30.337942513,87.510688432
0.482,29.918431593,87.510688963
0.483,29.502677213,87.510689504
0.484,29.090722178,87.510690055
0.485,28.682622215,87.510690615
0.486,28.278409414,87.510691185
0.487,27.878110143,87.510691765
0.488,27.481756295,87.510692354
0.489,27.089360544,87.510692952
0.49,26.700995102,87.51069356
0.491,26.31669039,87.510694176
0.492,25.936467583,87.510694802
0.493,25.560336037,87.510695436
0.494,25.188345648,87.51069608
0.495,24.820518849,87.510696732
0.496,24.456891392,87.510697392
0.497,24.097486108,87.510698061
0.498,23.742285177,87.510698738
0.499,23.391274413,87.510699424
0.5,23.044452216,87.510700117
0.501,22.701841402,87.510700819
0.502,22.363452877,87.510701529
0.503,22.0293303,87.510702246
0.504,21.699461437,87.510702971
0.505,21.373829622,87.510703703
0.506,21.052428466,87.510704443
0.507,20.735265343,87.510705191
0.508,20.422337763,87.510705945
0.509,20.113630378,87.510706707
0.51,19.809442495,87.510816127
0.511,19.628644059,87.528670495
0.512,19.44953227,87.570621974
0.513,19.281080648,87.63498338
0.514,19.121472547,87.719932106
0.515,18.967479646,87.824115088
0.516,18.818020015,87.946428602
0.517,18.673105185,88.085817695
0.518,18.532663956,88.241255767
0.519,18.396301115,88.411785007
0.52,18.263395701,88.596549022
0.521,18.133315957,88.79479924
0.522,18.005534427,89.005880193
0.523,17.879600535,89.229216529
0.524,17.755131831,89.464301403
0.525,17.631848952,89.7106828
0.526,17.509563706,89.967948909
0.527,17.388165566,90.235716933
0.528,17.267605826,90.513623506
0.529,17.14789778,90.801315692
0.53,17.029109119,91.098443616
0.531,16.911290709,91.404659821
0.532,16.794527373,91.719617113
0.533,16.678885645,92.04296827
0.534,16.564415007,92.374369782
0.535,16.451177438,92.713479402
0.536,16.339216447,93.059959647
0.537,16.228691296,93.413464558
0.538,16.119700434,93.773642554
0.539,16.01231585,94.140142825
0.54,15.906605732,94.512614023
0.541,15.802676982,94.890703045
0.542,15.700593799,95.274055417
0.543,15.600413946,95.66232043
0.544,15.502244669,96.055143676
0.545,15.406167958,96.45216873
0.546,15.312265713,96.853038931
0.547,15.220628451,97.257394795
0.548,15.131311515,97.66487877
0.549,15.044372977,98.075135608
0.55,14.959907203,98.487808246
0.551,14.877979053,98.902539402
0.552,14.798619832,99.318976575
0.553,14.721862156,99.736772063
0.554,14.647693399,100.15558772
0.555,14.576080657,100.57509839
0.556,14.506981015,100.99499278
0.557,14.440354915,101.4149734
0.558,14.376145593,101.83475754
0.559,14.314302572,102.25407679
0.56,14.25477779,102.67267629
0.561,14.197530006,103.09031359
0.562,14.142529262,103.50675683
0.563,14.0897515,103.92178351
0.564,14.03917935,104.33517937
0.565,13.990798783,104.74673751
0.566,13.944595134,105.15625819
0.567,13.900551962,105.56354877
0.568,13.858650821,105.96842379
0.569,13.818870974,106.37070505
0.57,13.781189019,106.77022168
0.571,13.745578818,107.16681036
0.572,13.712011897,107.56031533
0.573,13.680457767,107.95058852
0.574,13.650884009,108.33748953
0.575,13.623256298,108.72088569
0.576,13.597538831,109.10065203
0.577,13.57369436,109.47667125
0.578,13.551684111,109.84883367
0.579,13.531468022,110.21703726
0.58,13.513005116,110.58118747
0.581,13.496252953,110.94119726
0.582,13.481167135,111.29698707
0.583,13.467701339,111.64848491
0.584,13.455807365,111.99562639
0.585,13.445435099,112.33835473
0.586,13.436532717,112.67662083
0.587,13.429046814,113.01038323
0.588,13.422922374,113.33960814
0.589,13.418103034,113.6642694
0.59,13.414531819,113.98434841
0.591,13.412151965,114.29983387
0.592,13.410907432,114.61072158
0.593,13.410743647,114.91701401
0.594,13.411607934,115.21871991
0.595,13.413449483,115.5158539
0.596,13.416219605,115.80843603
0.597,13.419871818,116.09649135
0.598,13.424361577,116.3800495
0.599,13.429646262,116.65914436
0.6,13.435685378,116.93381363
0.601,13.442440672,117.20409846
0.602,13.449876106,117.47004309
0.603,13.457957814,117.73169441
0.604,13.466654019,117.98910168
0.605,13.475934794,118.24231619
0.606,13.485771796,118.49139098
0.607,13.496138059,118.73638065
0.608,13.507007714,118.97734111
0.609,13.518355812,119.21432947
0.61,13.53015821,119.44740388
0.611,13.542391483,119.67662344
0.612,13.555032838,119.90204805
0.613,13.568060087,120.12373835
0.614,13.581451647,120.34175561
0.615,13.595186557,120.55616164
0.616,13.609244467,120.76701872
0.617,13.62360565,120.97438951
0.618,13.638251009,121.17833693
0.619,13.65316211,121.37892412
0.62,13.668321208,121.57621433
0.621,13.683711272,121.77027083
0.622,13.699315988,121.96115686
0.623,13.715119764,122.14893547
0.624,13.731107716,122.33366952
0.625,13.747265657,122.51542157
0.626,13.763580079,122.69425378
0.627,13.780038137,122.87022789
0.628,13.796627631,123.04340512
0.629,13.813336987,123.21384614
0.63,13.830155233,123.38161099
