time,pressure,volume
0,17.583398818,140.871151
0.001,18.253260488,141.12153066
0.002,18.366817279,141.37117584
0.003,18.488412569,141.61275616
0.004,18.586495463,141.848686
0.005,18.677097165,142.08041555
0.006,18.770687578,142.30754627
0.007,18.866112456,142.52953492
0.008,18.960138376,142.74626701
0.009,19.051157146,142.95790172
0.01,19.13882595,143.16467186
0.011,19.223168002,143.36680702
0.012,19.304183156,143.56452835
0.013,19.38186154,143.75805254
0.014,19.456310309,143.94758055
0.015,19.527814209,144.13327548
0.016,19.596784431,144.31524415
0.017,19.663637569,144.49353328
0.018,19.728681017,144.66814199
0.019,19.792053952,144.83904372
0.02,19.853735133,145.00620898
0.021,19.913602459,145.16962122
0.022,19.971511622,145.3292822
0.023,20.02737048,145.48520714
0.024,20.081182698,145.63741301
0.025,20.133056935,145.78590467
0.026,20.183180785,145.93066366
0.027,20.231772195,146.07164312
0.028,20.279028449,146.20876967
0.029,20.325084846,146.34195104
0.03,20.369993899,146.47108713
0.031,20.413727762,146.59608129
0.032,20.456200655,146.71684883
0.033,20.497299405,146.83332167
0.034,20.536917486,146.94544827
0.035,20.574980152,147.05318993
0.036,20.611458061,147.15651494
0.037,20.646366637,147.25539248
0.038,20.679756376,147.34978771
0.039,20.711699049,147.43965865
0.04,20.742274835,147.52495499
0.041,20.77156062,147.60561838
0.042,20.799623747,147.68158388
0.043,20.826521837,147.75278153
0.044,20.852302488,147.81913787
0.045,20.877008018,147.88057705
0.046,20.900677544,147.93702143
0.047,20.92334903,147.98839199
0.048,20.945060802,148.03460854
0.049,20.965853559,148.07558963
0.05,20.98577207,148.11125242
0.051,21.004864158,148.14151264
0.052,21.023181456,148.16628504
0.053,21.040782325,148.18548444
0.054,21.057738706,148.19902943
0.055,21.074166152,148.20685849
0.056,21.090489045,148.20909556
0.057,21.120058012,148.20909623
0.058,21.153178362,148.20909689
0.059,21.190553299,148.20909755
0.06,21.231641591,148.20909821
0.061,21.276229294,148.20909887
0.062,21.324628678,148.20909952
0.063,21.377141809,148.20910018
0.064,21.433950811,148.20910083
0.065,21.495171852,148.20910147
0.066,21.560898428,148.20910212
0.067,21.631221481,148.20910276
0.068,21.706237587,148.2091034
0.069,21.786050594,148.20910403
0.07,21.870779837,148.20910466
0.071,21.960564698,148.20910529
0.072,22.055566353,148.20910592
0.073,22.155962606,148.20910654
0.074,22.261940999,148.20910715
0.075,22.37369169,148.20910777
0.076,22.491402007,148.20910837
0.077,22.615258749,148.20910898
0.078,22.74545235,148.20910958
0.079,22.882174911,148.20911017
0.08,23.025628908,148.20911076
0.081,23.176028736,148.20911134
0.082,23.333598922,148.20911192
0.083,23.498573948,148.20911249
0.084,23.671199772,148.20911306
0.085,23.851724788,148.20911362
0.086,24.040398256,148.20911417
0.087,24.237471668,148.20911471
0.088,24.443189245,148.20911525
0.089,24.657792916,148.20911579
0.09,24.881522208,148.20911631
0.091,25.114610393,148.20911683
0.092,25.357295864,148.20911734
0.093,25.609823009,148.20911784
0.094,25.872440689,148.20911833
0.095,26.14539461,148.20911881
0.096,26.428931585,148.20911929
0.097,26.723295188,148.20911975
0.098,27.028738027,148.20912021
0.099,27.345507569,148.20912065
0.1,27.673852603,148.20912109
0.101,28.014026374,148.20912151
0.102,28.366281657,148.20912192
0.103,28.730858342,148.20912233
0.104,29.107991764,148.20912272
0.105,29.497919035,148.20912309
0.106,29.900881637,148.20912346
0.107,30.317126485,148.20912381
0.108,30.746902788,148.20912415
0.109,31.190458492,148.20912448
0.11,31.64804354,148.20912479
0.111,32.119900222,148.20912509
0.112,32.606264803,148.20912538
0.113,33.107387824,148.20912565
0.114,33.623520715,148.2091259
0.115,34.154910342,148.20912614
0.116,34.701791785,148.20912636
0.117,35.264399354,148.20912656
0.118,35.842972557,148.20912675
0.119,36.437730783,148.20912692
0.12,37.048894923,148.20912708
0.121,37.676677388,148.20912721
0.122,38.321281472,148.20912733
0.123,38.982912746,148.20912743
0.124,39.661748656,148.2091275
0.125,40.357969906,148.20912756
0.126,41.071748854,148.2091276
0.127,41.803246363,148.20912761
0.128,42.552608855,148.20912761
0.129,43.319973842,148.20912758
0.13,44.105471913,148.20912753
0.131,44.909222921,148.20912746
0.132,45.731327757,148.20912736
0.133,46.571883397,148.20912724
0.134,47.430966686,148.2091271
0.135,48.30864719,148.20912693
0.136,49.204988459,148.20912673
0.137,50.120025194,148.20912651
0.138,51.053772422,148.20912627
0.139,52.00624301,148.209126
0.14,52.977427728,148.2091257
0.141,53.967296676,148.20912537
0.142,54.975807567,148.20912501
0.143,56.002908642,148.20912463
0.144,57.048521167,148.20912421
0.145,58.112554976,148.20912377
0.146,59.194907598,148.2091233
0.147,60.295455634,148.2091228
0.148,61.414059776,148.20912226
0.149,62.550551133,148.2091217
0.15,63.704738855,148.2091211
0.151,64.876422766,148.20912047
0.152,66.065356484,148.20911981
0.153,67.271229677,148.20911911
0.154,68.336383972,148.19131849
0.155,69.024314369,148.08713432
0.156,69.558757827,147.91639796
0.157,69.978943975,147.70271294
0.158,70.330724387,147.46088868
0.159,70.642782372,147.19989927
0.16,70.932848384,146.92515326
0.161,71.21204905,146.63984484
0.162,71.487265025,146.34581069
0.163,71.762659107,146.04407033
0.164,72.040445659,145.7351876
0.165,72.321467905,145.41951593
0.166,72.605733387,145.09734549
0.167,72.892831441,144.76897768
0.168,73.182352815,144.43473512
0.169,73.473986659,144.0949485
0.17,73.767604101,143.74993488
0.171,74.06317627,143.39998169
0.172,74.360660763,143.04534936
0.173,74.659976258,142.68627882
0.174,74.961066341,142.32299257
0.175,75.263786235,141.95570393
0.176,75.567977817,141.58462361
0.177,75.873451394,141.20996247
0.178,76.180097262,140.83192505
0.179,76.487784167,140.45070963
0.18,76.796408753,140.06650683
0.181,77.105855817,139.67950113
0.182,77.416021506,139.28986999
0.183,77.726766811,138.89778863
0.184,78.038005418,138.50342673
0.185,78.349616223,138.10694827
0.186,78.661507818,137.70851354
0.187,78.973587875,137.30827633
0.188,79.285747939,136.90638774
0.189,79.597919088,136.5029921
0.19,79.909994162,136.09823063
0.191,80.221872254,135.69224262
0.192,80.533477673,135.28516298
0.193,80.844733675,134.87712147
0.194,81.155578003,134.46824232
0.195,81.465932785,134.05864544
0.196,81.775662727,133.64845363
0.197,82.084704336,133.23778787
0.198,82.393012345,132.82676131
0.199,82.700515907,132.41548305
0.2,83.007156227,132.00405883
0.201,83.312842152,131.59259336
0.202,83.617503805,131.18119047
0.203,83.921069187,130.76995123
0.204,84.223465108,130.35897593
0.205,84.524655861,129.94835927
0.206,84.824560536,129.53819437
0.207,85.123097569,129.12857647
0.208,85.420238916,128.71959451
0.209,85.715909927,128.31133617
0.21,86.010102943,127.90388357
0.211,86.302730418,127.49731741
0.212,86.593727749,127.09172047
0.213,86.883096233,126.68716819
0.214,87.170776752,126.28373259
0.215,87.456751707,125.88148278
0.216,87.740992799,125.48048313
0.217,88.02341935,125.0807999
0.218,88.303977093,124.68250149
0.219,88.582634319,124.28565115
0.22,88.859371854,123.89031209
0.221,89.134136188,123.4965426
0.222,89.406880629,123.10440405
0.223,89.677572481,122.71395518
0.224,89.946202425,122.32525033
0.225,90.212743571,121.93834013
0.226,90.477152951,121.55327675
0.227,90.739422073,121.17010745
0.228,90.999502257,120.78888046
0.229,91.257353318,120.40964408
0.23,91.512926326,120.03244817
0.231,91.766224878,119.65733795
0.232,92.017226384,119.28435643
0.233,92.265885204,118.9135469
0.234,92.512181264,118.54495243
0.235,92.756102918,118.17861257
0.236,92.997618276,117.81456658
0.237,93.236712331,117.45285213
0.238,93.473358333,117.09350621
0.239,93.707514361,116.73656677
0.24,93.939176039,116.38206992
0.241,94.168325747,116.03004979
0.242,94.394942903,115.68053966
0.243,94.619012126,115.3335716
0.244,94.840517556,114.98917633
0.245,95.059437523,114.64738424
0.246,95.275753184,114.3082252
0.247,95.489447371,113.97172835
0.248,95.700503088,113.63792211
0.249,95.908901972,113.30683443
0.25,96.114629738,112.97849247
0.251,96.317671592,112.65292259
0.252,96.518012649,112.33015043
0.253,96.71563719,112.0102012
0.254,96.910529198,111.69309963
0.255,97.102675252,111.37886993
0.256,97.292064786,111.06753539
0.257,97.47868911,110.75911821
0.258,97.662537013,110.45363981
0.259,97.843599334,110.15112085
0.26,98.021869455,109.85158093
0.261,98.197337234,109.55503896
0.262,98.369987471,109.26151392
0.263,98.539807842,108.97102476
0.264,98.706789132,108.68358987
0.265,98.870915809,108.39922771
0.266,99.032165037,108.11795778
0.267,99.19052049,107.83980018
0.268,99.34596932,107.5647748
0.269,99.498500139,107.29290122
0.27,99.648103918,107.02419841
0.271,99.79476906,106.75868492
0.272,99.938480869,106.4963795
0.273,100.07922331,106.23730106
0.274,100.21697643,105.98146931
0.275,100.35171518,105.72890521
0.276,100.48342265,105.47963021
0.277,100.61208793,105.2336654
0.278,100.73770622,104.99103063
0.279,100.86027211,104.75174449
0.28,100.97976324,104.51582615
0.281,101.09616058,104.28329583
0.282,101.20944605,104.05417412
0.283,101.31959926,103.82848218
0.284,101.42660156,103.60624188
0.285,101.53044371,103.38747435
0.286,101.63110313,103.17220116
0.287,101.72856509,102.96044429
0.288,101.82281807,102.752225
0.289,101.91383916,102.54756525
0.29,102.00160471,102.34648792
0.291,102.08608889,102.14901717
0.292,102.16726793,101.95517781
0.293,102.24510277,101.76499693
0.294,102.31956659,101.57850307
0.295,102.39063823,101.39572474
0.296,102.45829429,101.21669067
0.297,102.52249981,101.04143088
0.298,102.58322261,100.86997695
0.299,102.64043469,100.70236104
0.3,102.69410178,100.53861624
0.301,102.74418888,100.37877723
0.302,102.79067226,100.22287856
0.303,102.83352518,100.07095461
0.304,102.87270851,99.923041168
0.305,102.9081871,99.779175279
0.306,102.93993079,99.63939429
0.307,102.96790238,99.503736345
0.308,102.99204848,99.372242324
0.309,103.01231946,99.244955653
0.31,103.02866514,99.121921826
0.311,103.04102915,99.003188889
0.312,103.04935731,98.888807304
0.313,103.05361008,98.778827925
0.314,103.05374361,98.673301921
0.315,103.04971202,98.572281347
0.316,103.04147407,98.475818311
0.317,103.02898349,98.383965752
0.318,103.01220024,98.296776265
0.319,102.99108723,98.214302242
0.32,102.96557656,98.13659838
0.321,102.93560789,98.063722197
0.322,102.90112514,97.995732735
0.323,102.86208051,97.932689304
0.324,102.81842099,97.874651817
0.325,102.77008154,97.821682076
0.326,102.71698765,97.773844658
0.327,102.65907917,97.731206056
0.328,102.59632219,97.69383054
0.329,102.52867207,97.661780411
0.33,102.45608049,97.635116624
0.331,102.37849667,97.613898294
0.332,102.29586744,97.598179594
0.333,102.20809252,97.588004828
0.334,102.11482953,97.583374936
0.335,101.9959561,97.583060778
0.336,101.8348795,97.583059628
0.337,101.64056305,97.583058483
0.338,101.4174335,97.583057342
0.339,101.16923784,97.583056208
0.34,100.8988762,97.583055079
0.341,100.60887798,97.583053958
0.342,100.30163215,97.583052845
0.343,99.979359926,97.583051739
0.344,99.644053875,97.583050642
0.345,99.297404861,97.583049553
0.346,98.940803245,97.583048474
0.347,98.575384253,97.583047403
0.348,98.202058967,97.583046342
0.349,97.821551148,97.58304529
0.35,97.434472906,97.583044248
0.351,97.04132135,97.583043216
0.352,96.642514665,97.583042194
0.353,96.238388261,97.583041182
0.354,95.829170115,97.583040181
0.355,95.415034235,97.583039189
0.356,94.996089683,97.583038209
0.357,94.572398015,97.583037239
0.358,94.143994233,97.58303628
0.359,93.710891478,97.583035332
0.36,93.273111653,97.583034395
0.361,92.830687465,97.58303347
0.362,92.383647723,97.583032556
0.363,91.932004718,97.583031653
0.364,91.47579509,97.583030761
0.365,91.015056259,97.583029882
0.366,90.54981347,97.583029014
0.367,90.080118124,97.583028158
0.368,89.606024245,97.583027315
0.369,89.127603292,97.583026483
0.37,88.644906103,97.583025664
0.371,88.157992589,97.583024857
0.372,87.666964116,97.583024063
0.373,87.171918193,97.583023281
0.374,86.67296944,97.583022512
0.375,86.170222217,97.583021756
0.376,85.663782338,97.583021013
0.377,85.15378712,97.583020283
0.378,84.640338825,97.583019566
0.379,84.123554339,97.583018862
0.38,83.603546193,97.583018172
0.381,83.08044027,97.583017495
0.382,82.55436157,97.583016831
0.383,82.025440344,97.583016181
0.384,81.493785704,97.583015545
0.385,80.959514967,97.583014922
0.386,80.422751262,97.583014313
0.387,79.883592675,97.583013718
0.388,79.342169148,97.583013136
0.389,78.798594773,97.583012569
0.39,78.252984239,97.583012016
0.391,77.705438144,97.583011476
0.392,77.156086441,97.583010951
0.393,76.605025727,97.58301044
0.394,76.052337453,97.583009943
0.395,75.498129162,97.583009461
0.396,74.942507946,97.583008992
0.397,74.385577605,97.583008538
0.398,73.827408907,97.583008098
0.399,73.268109941,97.583007673
0.4,72.707780406,97.583007262
0.401,72.146503406,97.583006866
0.402,71.584377825,97.583006483
0.403,71.021497046,97.583006116
0.404,70.457952103,97.583005763
0.405,69.893850093,97.583005424
0.406,69.329264975,97.5830051
0.407,68.764276575,97.58300479
0.408,68.198983833,97.583004495
0.409,67.633476606,97.583004215
0.41,67.067841189,97.583003949
0.411,66.502153263,97.583003697
0.412,65.936495554,97.58300346
0.413,65.370948823,97.583003238
0.414,64.805580783,97.58300303
0.415,64.240478339,97.583002837
0.416,63.675712846,97.583002658
0.417,63.111370678,97.583002494
0.418,62.547525842,97.583002345
0.419,61.98426094,97.583002209
0.42,61.421650174,97.583002089
0.421,60.859768183,97.583001982
0.422,60.298685307,97.583001891
0.423,59.738490905,97.583001813
0.424,59.179251329,97.58300175
0.425,58.621041381,97.583001701
0.426,58.063937222,97.583001667
0.427,57.508002375,97.583001647
0.428,56.953297908,97.583001641
0.429,56.399905857,97.58300165
0.43,55.847875006,97.583001673
0.431,55.2972567,97.583001709
0.432,54.74811232,97.58300176
0.433,54.200512596,97.583001825
0.434,53.654518837,97.583001904
0.435,53.110194886,97.583001998
0.436,52.567609861,97.583002105
0.437,52.026823953,97.583002226
0.438,51.487888215,97.58300236
0.439,50.950849974,97.583002509
0.44,50.415785436,97.583002671
0.441,49.882751443,97.583002847
0.442,49.351813393,97.583003037
0.443,48.823018229,97.58300324
0.444,48.296412657,97.583003457
0.445,47.772045262,97.583003687
0.446,47.249971004,97.583003931
0.447,46.730242594,97.583004188
0.448,46.212913884,97.583004459
0.449,45.698022151,97.583004742
0.45,45.1856042,97.583005039
0.451,44.675716385,97.583005349
0.452,44.168422069,97.583005671
0.453,43.663768158,97.583006007
0.454,43.161808346,97.583006356
0.455,42.662609251,97.583006717
0.456,42.166232645,97.583007091
0.457,41.672733134,97.583007478
0.458,41.18215947,97.583007878
0.459,40.694560517,97.58300829
0.46,40.209981464,97.583008714
0.461,39.728460958,97.583009151
0.462,39.250057201,97.5830096
0.463,38.774814067,97.583010061
0.464,38.302789898,97.583010534
0.465,37.834040946,97.583011019
0.466,37.36861156,97.583011516
0.467,36.906555228,97.583012025
0.468,36.447919347,97.583012546
0.469,35.992732037,97.583013078
0.47,35.541062966,97.583013622
0.471,35.092973536,97.583014177
0.472,34.648502262,97.583014744
0.473,34.207692788,97.583015322
0.474,33.770601166,97.583015911
0.475,33.337279077,97.583016511
0.476,32.907763707,97.583017122
0.477,32.482081922,97.583017744
0.478,32.060267006,97.583018377
0.479,31.642359942,97.58301902
0.48,31.22838885,97.583019674
0.481,30.818398178,97.583020338
0.482,30.412418324,97.583021013
0.483,30.01045842,97.583021698
0.484,29.612550608,97.583022393
0.485,29.21871485,97.583023098
0.486,28.828971717,97.583023813
0.487,28.443326332,97.583024537
0.488,28.061803392,97.583025272
0.489,27.684406085,97.583026016
0.49,27.31113737,97.583026769
0.491,26.941996605,97.583027532
0.492,26.577015879,97.583028304
0.493,26.216195803,97.583029085
0.494,25.859546685,97.583029875
0.495,25.507079984,97.583030675
0.496,25.158785681,97.583031482
0.497,24.814681905,97.583032299
0.498,24.474766051,97.583033124
0.499,24.139025883,97.583033958
0.5,23.807442117,97.5830348
0.501,23.479995322,97.58303565
0.502,23.156675036,97.583036508
0.503,22.837496715,97.583037375
0.504,22.52242673,97.583038249
0.505,22.211456905,97.583039131
0.506,21.904581685,97.583040021
0.507,21.60176639,97.583040918
0.508,21.302956079,97.583041823
0.509,21.008120955,97.583042736
0.51,20.717210143,97.583043655
0.511,20.430178702,97.583044582
0.512,20.146984958,97.583045516
0.513,19.867600939,97.583046456
0.514,19.591989794,97.583047404
0.515,19.320122843,97.583048358
0.516,19.051944156,97.583049319
0.517,18.787369064,97.583050287
0.518,18.526368415,97.583051261
0.519,18.268914499,97.583052241
0.52,18.014998061,97.583053228
0.521,17.791698906,97.586472622
0.522,17.636085392,97.609527528
0.523,17.481715745,97.654373355
0.524,17.335135426,97.719751681
0.525,17.19481216,97.804500579
0.526,17.059327525,97.907695683
0.527,16.928536968,98.028476707
0.528,16.802594166,98.165976927
0.529,16.68139295,98.319343799
0.53,16.564580913,98.487776272
0.531,16.451721671,98.670540298
0.532,16.342447139,98.866962712
0.533,16.236407708,99.076426314
0.534,16.13332023,99.298362193
0.535,16.032948094,99.532241672
0.536,15.935069955,99.777573055
0.537,15.83951235,100.03389636
0.538,15.746174231,100.30077356
0.539,15.655013611,100.57777992
0.54,15.566024212,100.86449868
0.541,15.479263751,101.16051324
0.542,15.394831009,101.46540039
0.543,15.312822495,101.77872992
0.544,15.233344739,102.10006352
0.545,15.156500406,102.42895503
0.546,15.082398002,102.76495007
0.547,15.01113177,103.10758739
0.548,14.942779649,103.45640084
0.549,14.877381513,103.81092405
0.55,14.814961239,104.17069336
0.551,14.755522416,104.53525005
0.552,14.699048508,104.90414323
0.553,14.64551709,105.27693093
0.554,14.594898854,105.65318064
0.555,14.547148538,106.03247115
0.556,14.50220924,106.41439412
0.557,14.460025544,106.79855415
0.558,14.420537879,107.18456883
0.559,14.383681972,107.57206927
0.56,14.349394386,107.96069999
0.561,14.317609324,108.35011886
0.562,14.288255852,108.73999754
0.563,14.261259556,109.13002187
0.564,14.236543775,109.51989194
0.565,14.21403162,109.90932208
0.566,14.193647969,110.29804042
0.567,14.175320465,110.68578843
0.568,14.158980554,111.07232018
0.569,14.144563705,111.45740172
0.57,14.132009963,111.84081028
0.571,14.121264992,112.22233342
0.572,14.112279498,112.60176815
0.573,14.105008175,112.97892029
0.574,14.099408928,113.35360387
0.575,14.095441585,113.72564068
0.576,14.0930667,114.09486007
0.577,14.092244188,114.46109889
0.578,14.092931733,114.82420154
0.579,14.095083464,115.18402043
0.58,14.098649521,115.54041627
0.581,14.103575725,115.89325858
0.582,14.109803406,116.24242617
0.583,14.117269476,116.58780757
0.584,14.125906681,116.92930145
0.585,14.135644628,117.26681702
0.586,14.146411335,117.60027406
0.587,14.15813491,117.92960288
0.588,14.170745195,118.25474397
0.589,14.184175256,118.5756475
0.59,14.198362357,118.89227267
0.591,14.213248535,119.20458692
0.592,14.228780681,119.51256525
0.593,14.244910239,119.81618943
0.594,14.261592718,120.11544738
0.595,14.278787196,120.4103326
0.596,14.296455894,120.70084368
0.597,14.314563796,120.9869838
0.598,14.333078248,121.26876038
0.599,14.35196856,121.54618475
0.6,14.371205652,121.81927186
0.601,14.390761733,122.08804005
0.602,14.410610048,122.35251084
0.603,14.430724686,122.61270882
0.604,14.451080464,122.86866145
0.605,14.471652866,123.12039899
0.606,14.492418028,123.36795433
0.607,14.513352753,123.61136286
0.608,14.534434559,123.8506624
0.609,14.555641728,124.08589303
0.61,14.576953381,124.31709694
0.611,14.598349534,124.54431832
0.612,14.619811149,124.76760317
0.613,14.641320171,124.9869992
0.614,14.662859529,125.20255561
0.615,14.684413129,125.414323
0.616,14.705965823,125.62235321
0.617,14.727503366,125.82669916
0.618,14.749012373,126.02741474
0.619,14.770480284,126.2245547
0.62,14.791895321,126.41817451
0.621,14.813246469,126.60833024
0.622,14.834523454,126.79507852
0.623,14.855716733,126.97847634
0.624,14.876817486,127.15858105
0.625,14.897817604,127.33545018
0.626,14.918709683,127.5091414
0.627,14.939487,127.67971238
0.628,14.960143495,127.84722076
0.629,14.980673741,128.01172403
