time,pressure,volume
0,17.40642331,140.871151
0.001,19.747164287,141.73042138
0.002,19.958587493,142.55203707
0.003,20.258704831,143.30567264
0.004,20.463466352,144.00435922
0.005,20.637171625,144.65635329
0.006,20.815685476,145.26313664
0.007,20.99269132,145.82597801
0.008,21.157018082,146.34765702
0.009,21.304384472,146.83168656
0.01,21.435213986,147.28154768
0.011,21.551216814,147.70041853
0.012,21.653952699,148.0911721
0.013,21.744865211,148.45640812
0.014,21.825640405,148.79843929
0.015,21.898258298,149.11925892
0.016,21.96467156,149.42054133
0.017,22.026407001,149.70369565
0.018,22.084350133,149.96995339
0.019,22.138786768,150.22045608
0.02,22.189639356,150.456314
0.021,22.236766261,150.67862435
0.022,22.280207404,150.88845382
0.023,22.320314539,151.08680062
0.024,22.357738595,151.27455493
0.025,22.393315369,151.45247305
0.026,22.427897537,151.62117354
0.027,22.462195567,151.78115534
0.028,22.496676679,151.93283083
0.029,22.531531255,152.07656444
0.03,22.566708894,152.2127073
0.031,22.602003667,152.3416209
0.032,22.637160556,152.46368614
0.033,22.671968341,152.57929928
0.034,22.706321274,152.68885864
0.035,22.740242955,152.79274756
0.036,22.773876663,152.89131817
0.037,22.807450226,152.98487972
0.038,22.841236643,153.07369265
0.039,22.875516957,153.15796784
0.04,22.910556344,153.23786966
0.041,22.946592226,153.31352086
0.042,22.983827117,153.38500827
0.043,23.022432352,153.45238843
0.044,23.06255728,153.5156917
0.045,23.104333075,153.57492563
0.046,23.147879548,153.63007757
0.047,23.193314185,153.68111587
0.048,23.240756982,153.72799042
0.049,23.290330826,153.77063291
0.05,23.342161983,153.8089572
0.051,23.396379199,153.84285971
0.052,23.45311425,153.87222002
0.053,23.512501745,153.89690162
0.054,23.574674128,153.91675394
0.055,23.639777242,153.93161501
0.056,23.7080021,153.94131766
0.057,23.779940479,153.94571728
0.058,23.862678994,153.94586986
0.059,23.958190963,153.94587048
0.06,24.062150967,153.9458711
0.061,24.174986118,153.94587172
0.062,24.296852705,153.94587233
0.063,24.428110374,153.94587294
0.064,24.569269822,153.94587355
0.065,24.720805436,153.94587415
0.066,24.88314681,153.94587475
0.067,25.056703856,153.94587534
0.068,25.241901688,153.94587593
0.069,25.43917786,153.94587651
0.07,25.648995129,153.94587709
0.071,25.871856166,153.94587766
0.072,26.108301221,153.94587823
0.073,26.35888731,153.94587878
0.074,26.62418471,153.94587934
0.075,26.904767165,153.94587988
0.076,27.201224758,153.94588042
0.077,27.514129827,153.94588094
0.078,27.844062035,153.94588146
0.079,28.191614159,153.94588197
0.08,28.557419759,153.94588247
0.081,28.942144377,153.94588296
0.082,29.346469495,153.94588344
0.083,29.771075273,153.94588391
0.084,30.216669094,153.94588437
0.085,30.683971107,153.94588481
0.086,31.173703802,153.94588524
0.087,31.686606358,153.94588565
0.088,32.223411753,153.94588606
0.089,32.78482661,153.94588644
0.09,33.371591053,153.94588681
0.091,33.984477041,153.94588717
0.092,34.624250135,153.94588751
0.093,35.291699838,153.94588783
0.094,35.987607323,153.94588813
0.095,36.712732531,153.94588841
0.096,37.467876079,153.94588867
0.097,38.253843538,153.94588891
0.098,39.071488385,153.94588913
0.099,39.921605563,153.94588932
0.1,40.805018749,153.94588949
0.101,41.722555916,153.94588964
0.102,42.675019448,153.94588976
0.103,43.663179943,153.94588986
0.104,44.687837869,153.94588992
0.105,45.74978193,153.94588996
0.106,46.84975436,153.94588997
0.107,47.98849057,153.94588995
0.108,49.166722172,153.94588989
0.109,50.385145498,153.94588981
0.11,51.644443991,153.94588969
0.111,52.945287742,153.94588953
0.112,54.288290469,153.94588934
0.113,55.674041342,153.94588911
0.114,57.103107326,153.94588885
0.115,58.576025525,153.94588854
0.116,60.093300979,153.94588819
0.117,61.655407657,153.9458878
0.118,63.262774907,153.94588737
0.119,64.915797914,153.94588689
0.12,66.614826123,153.94588637
0.121,68.360170003,153.9458858
0.122,69.523704525,153.85254233
0.123,70.420229437,153.64190421
0.124,71.123568777,153.35299448
0.125,71.702105311,153.01256031
0.126,72.206509769,152.63719297
0.127,72.669327822,152.23696095
0.128,73.111329614,151.81781372
0.129,73.545230853,151.38317683
0.13,73.978408239,150.93499647
0.131,74.414771271,150.47440055
0.132,74.856001953,150.00211234
0.133,75.302456847,149.51869319
0.134,75.753915581,149.02465681
0.135,76.210087773,148.52049708
0.136,76.670696754,148.00668884
0.137,77.13553508,147.48368359
0.138,77.604462603,146.95190189
0.139,78.077355015,146.41173417
0.14,78.553997672,145.86355154
0.141,79.034212232,145.30770865
0.142,79.517758918,144.74454951
0.143,80.00442752,144.17440866
0.144,80.493958591,143.59761487
0.145,80.986153553,143.01448876
0.146,81.48082517,142.42534
0.147,81.977721843,141.83047305
0.148,82.47663042,141.23019032
0.149,82.97739243,140.62478138
0.15,83.479801904,140.01452837
0.151,83.983608162,139.39971442
0.152,84.488596588,138.78062024
0.153,84.994554692,138.15752347
0.154,85.501230849,137.5307008
0.155,86.008435095,136.9004294
0.156,86.516064763,136.26696807
0.157,87.02393461,135.63056929
0.158,87.531865741,134.9914823
0.159,88.039666252,134.34995258
0.16,88.547206107,133.70621872
0.161,89.054333394,133.06051125
0.162,89.560902555,132.41305456
0.163,90.066746922,131.76406994
0.164,90.571792099,131.11376665
0.165,91.075831291,130.46235359
0.166,91.578799728,129.81003119
0.167,92.080590377,129.1569886
0.168,92.581065651,128.50341162
0.169,93.080127729,127.84948192
0.17,93.577634392,127.19537523
0.171,94.073445782,126.54126833
0.172,94.567374807,125.88734105
0.173,95.059246883,125.23377782
0.174,95.548994505,124.58075544
0.175,96.036607957,123.92843312
0.176,96.521896602,123.27697152
0.177,97.004728436,122.62653417
0.178,97.485036822,121.97727844
0.179,97.962732716,121.32935402
0.18,98.437731599,120.6829052
0.181,98.90989726,120.03807979
0.182,99.379238255,119.39501133
0.183,99.84570736,118.75382132
0.184,100.30919688,118.11463336
0.185,100.7696104,117.47757042
0.186,101.22689786,116.8427479
0.187,101.68090238,116.21028815
0.188,102.13162149,115.58030676
0.189,102.57902045,114.95290733
0.19,103.0230487,114.32819115
0.191,103.46367772,113.70625136
0.192,103.90080932,113.08718294
0.193,104.33445823,112.47107225
0.194,104.76451706,111.85800621
0.195,105.19092483,111.24807297
0.196,105.61361749,110.6413588
0.197,106.03255453,110.03794789
0.198,106.44772306,109.43791745
0.199,106.85908319,108.84134077
0.2,107.26659516,108.24828987
0.201,107.67024625,107.65883057
0.202,108.06999151,107.07302699
0.203,108.46577878,106.49094393
0.204,108.85760266,105.9126412
0.205,109.24544389,105.33817477
0.206,109.62928149,104.76759738
0.207,110.00909085,104.20095966
0.208,110.38484814,103.63831032
0.209,110.75653748,103.07969553
0.21,111.12414757,102.5251585
0.211,111.48767006,101.97473927
0.212,111.84709206,101.42847552
0.213,112.20240313,100.88640277
0.214,112.55359396,100.34855434
0.215,112.90065867,99.814961283
0.216,113.24359618,99.285652036
0.217,113.5824079,98.760652257
0.218,113.9170984,98.239984815
0.219,114.24767231,97.723669929
0.22,114.57413511,97.211725402
0.221,114.89648962,96.704167078
0.222,115.21473802,96.201009324
0.223,115.52888817,95.702264587
0.224,115.83895117,95.207943032
0.225,116.14493689,94.718052878
0.226,116.44685915,94.232600316
0.227,116.74473173,93.75158943
0.228,117.03856415,93.275023027
0.229,117.32837186,92.80290231
0.23,117.61416699,92.335227022
0.231,117.89596139,91.871996008
0.232,118.17377926,91.413205964
0.233,118.44764844,90.958850794
0.234,118.71758815,90.508922746
0.235,118.98361243,90.063413459
0.236,119.24573797,89.622313889
0.237,119.5039839,89.185614018
0.238,119.75836991,88.753302848
0.239,120.0089112,88.325368867
0.24,120.25562568,87.901800148
0.241,120.4985315,87.482584067
0.242,120.7376472,87.067707546
0.243,120.97299728,86.65715636
0.244,121.20460267,86.250915396
0.245,121.4324919,85.848968319
0.246,121.65668896,85.45129751
0.247,121.87721088,85.057885518
0.248,122.09408669,84.668713819
0.249,122.30734064,84.283762927
0.25,122.51699351,83.903013202
0.251,122.72306085,83.526445246
0.252,122.9255493,83.15404124
0.253,123.12447475,82.785784037
0.254,123.31985864,82.421656061
0.255,123.51172644,82.061639021
0.256,123.7001162,81.705712422
0.257,123.88505562,81.353854403
0.258,124.06657138,81.006042516
0.259,124.24468552,80.662254071
0.26,124.41940661,80.322467733
0.261,124.59076179,79.986662334
0.262,124.75877268,79.654815811
0.263,124.92344179,79.326908401
0.264,125.08478699,79.002921085
0.265,125.24282592,78.682834934
0.266,125.39758945,78.366629994
0.267,125.54909358,78.05428599
0.268,125.69733521,77.745785287
0.269,125.84233354,77.441111071
0.27,125.98411171,77.140245438
0.271,126.12268684,76.843170616
0.272,126.25807034,76.549869445
0.273,126.39027257,76.260325597
0.274,126.51929984,75.974524029
0.275,126.64516594,75.69245019
0.276,126.76787309,75.414090823
0.277,126.88741601,75.139434853
0.278,127.00381109,74.868471558
0.279,127.11706163,74.60119076
0.28,127.2271779,74.337582881
0.281,127.33415476,74.077639316
0.282,127.43798243,73.821354766
0.283,127.5386779,73.568722977
0.284,127.63625157,73.319737444
0.285,127.73070241,73.074392087
0.286,127.82201187,72.832684256
0.287,127.9101903,72.594611273
0.288,127.99521929,72.360172688
0.289,128.07710636,72.12936808
0.29,128.15584528,71.902198221
0.291,128.23143153,71.678664487
0.292,128.30385615,71.458769615
0.293,128.37309539,71.242518872
0.294,128.43912128,71.0299212
0.295,128.50193299,70.820985682
0.296,128.5614959,70.615724008
0.297,128.61778422,70.414150759
0.298,128.67076886,70.216283386
0.299,128.72042572,70.022140274
0.3,128.76671371,69.831743686
0.301,128.80956475,69.645121405
0.302,128.84895476,69.462303649
0.303,128.88488442,69.283318015
0.304,128.91729848,69.108194742
0.305,128.94617301,68.936965782
0.306,128.9714703,68.769663907
0.307,128.99311157,68.606327768
0.308,129.01102699,68.447001511
0.309,129.02517271,68.291731962
0.31,129.03549822,68.140567212
0.311,129.04194701,67.993557413
0.312,129.04443299,67.850758275
0.313,129.04290031,67.712227915
0.314,129.03723368,67.578031272
0.315,129.0273358,67.448241179
0.316,129.0131422,67.322930763
0.317,128.99452922,67.202180824
0.318,128.97137203,67.086079481
0.319,128.94358931,66.97471817
0.32,128.91107286,66.86819185
0.321,128.87372611,66.766598578
0.322,128.83143915,66.670039336
0.323,128.78406114,66.578623904
0.324,128.73148343,66.49246553
0.325,128.67352825,66.41168575
0.326,128.60997032,66.336422438
0.327,128.54063385,66.266823156
0.328,128.46538719,66.203038118
0.329,128.38407441,66.145220721
0.33,128.29647279,66.093534932
0.331,128.20236419,66.048155625
0.332,128.10151568,66.009268542
0.333,127.9936436,65.977073314
0.334,127.87843741,65.951786036
0.335,127.75562646,65.933629601
0.336,127.62482661,65.922826132
0.337,127.48492762,65.919492613
0.338,127.25772144,65.919491188
0.339,126.9596444,65.919489768
0.34,126.59597209,65.919488357
0.341,126.17177462,65.919486956
0.342,125.69255412,65.919485567
0.343,125.16308676,65.919484191
0.344,124.5880525,65.919482828
0.345,123.97219006,65.919481481
0.346,123.32023452,65.91948015
0.347,122.63664698,65.919478836
0.348,121.92537504,65.91947754
0.349,121.18982719,65.919476263
0.35,120.43299386,65.919475004
0.351,119.65755603,65.919473766
0.352,118.86592464,65.919472547
0.353,118.06021527,65.919471349
0.354,117.24226299,65.919470172
0.355,116.41364783,65.919469016
0.356,115.57570534,65.919467881
0.357,114.72948371,65.919466768
0.358,113.8758557,65.919465676
0.359,113.01557199,65.919464607
0.36,112.1491923,65.919463559
0.361,111.27714327,65.919462534
0.362,110.39977401,65.919461532
0.363,109.51734898,65.919460552
0.364,108.63008734,65.919459595
0.365,107.73815787,65.91945866
0.366,106.84169636,65.919457749
0.367,105.94079356,65.91945686
0.368,105.03556767,65.919455995
0.369,104.12602812,65.919455153
0.37,103.21223543,65.919454335
0.371,102.29425678,65.91945354
0.372,101.37210036,65.919452768
0.373,100.4458528,65.919452021
0.374,99.515796187,65.919451297
0.375,98.582088061,65.919450597
0.376,97.64495522,65.919449922
0.377,96.704554144,65.91944927
0.378,95.761112083,65.919448643
0.379,94.81481134,65.91944804
0.38,93.865884801,65.919447461
0.381,92.914576208,65.919446907
0.382,91.96110547,65.919446377
0.383,91.005758954,65.919445872
0.384,90.048797503,65.919445391
0.385,89.090475293,65.919444935
0.386,88.131079557,65.919444504
0.387,87.170949939,65.919444097
0.388,86.210327755,65.919443715
0.389,85.249377707,65.919443358
0.39,84.288277371,65.919443025
0.391,83.327425026,65.919442717
0.392,82.367128241,65.919442434
0.393,81.407628306,65.919442176
0.394,80.449132432,65.919441942
0.395,79.491863944,65.919441733
0.396,78.536103645,65.919441548
0.397,77.582030524,65.919441388
0.398,76.62995575,65.919441253
0.399,75.680013002,65.919441141
0.4,74.732493032,65.919441055
0.401,73.787594979,65.919440992
0.402,72.845474423,65.919440954
0.403,71.906416119,65.91944094
0.404,70.970618195,65.91944095
0.405,70.038253236,65.919440984
0.406,69.109541417,65.919441041
0.407,68.184594159,65.919441123
0.408,67.26350496,65.919441228
0.409,66.346488435,65.919441357
0.41,65.4337174,65.919441509
0.411,64.525302935,65.919441685
0.412,63.621414339,65.919441884
0.413,62.722207189,65.919442105
0.414,61.827812277,65.91944235
0.415,60.93836963,65.919442618
0.416,60.05401207,65.919442909
0.417,59.174867959,65.919443221
0.418,58.301059742,65.919443557
0.419,57.432741744,65.919443915
0.42,56.570031659,65.919444294
0.421,55.713083706,65.919444696
0.422,54.861955895,65.91944512
0.423,54.016802471,65.919445565
0.424,53.177660191,65.919446032
0.425,52.34469194,65.91944652
0.426,51.51796673,65.919447029
0.427,50.69755154,65.91944756
0.428,49.883608852,65.919448111
0.429,49.076351981,65.919448683
0.43,48.275810666,65.919449275
0.431,47.482057642,65.919449888
0.432,46.695205127,65.91945052
0.433,45.915360132,65.919451173
0.434,45.142616411,65.919451845
0.435,44.377076869,65.919452537
0.436,43.618823771,65.919453249
0.437,42.867866985,65.919453979
0.438,42.124327025,65.919454729
0.439,41.388202393,65.919455497
0.44,40.659476567,65.919456284
0.441,39.938264944,65.919457089
0.442,39.224565728,65.919457912
0.443,38.518447598,65.919458754
0.444,37.819970468,65.919459613
0.445,37.129204012,65.919460489
0.446,36.446178745,65.919461383
0.447,35.770880448,65.919462295
0.448,35.103385756,65.919463223
0.449,34.443719967,65.919464168
0.45,33.791889644,65.919465129
0.451,33.147990585,65.919466107
0.452,32.512036752,65.919467101
0.453,31.884088033,65.91946811
0.454,31.264132497,65.919469136
0.455,30.652239341,65.919470177
0.456,30.048432686,65.919471233
0.457,29.452748039,65.919472304
0.458,28.865195675,65.91947339
0.459,28.2857756,65.91947449
0.46,27.714528804,65.919475605
0.461,27.151507611,65.919476735
0.462,26.596701724,65.919477878
0.463,26.050092845,65.919479035
0.464,25.511650218,65.919480205
0.465,24.981363932,65.919481389
0.466,24.459249183,65.919482585
0.467,23.945296696,65.919483795
0.468,23.439413555,65.919485017
0.469,22.941560226,65.919486252
0.47,22.451699434,65.919487499
0.471,22.008268995,65.922675786
0.472,21.760589887,65.954126933
0.473,21.516511121,66.018339799
0.474,21.290474994,66.11198932
0.475,21.078299677,66.232009308
0.476,20.873834194,66.376270006
0.477,20.674443784,66.5431862
0.478,20.479618239,66.731347945
0.479,20.289152251,66.939425366
0.48,20.102608107,67.166187171
0.481,19.919324761,67.410529565
0.482,19.738548321,67.671488304
0.483,19.55954701,67.948234641
0.484,19.381753145,68.240053882
0.485,19.20474551,68.546319035
0.486,19.028224131,68.866472852
0.487,18.852008441,69.200008519
0.488,18.676044828,69.546452065
0.489,18.50043113,69.905341258
0.49,18.325394111,70.276207643
0.491,18.15114682,70.658573037
0.492,17.977957283,71.051946202
0.493,17.806089837,71.455821558
0.494,17.635793303,71.869679962
0.495,17.467274403,72.292995748
0.496,17.300708948,72.725240572
0.497,17.13623492,73.165888124
0.498,16.973958492,73.614418001
0.499,16.813966279,74.070320047
0.5,16.656366532,74.533090471
0.501,16.501186358,75.002239671
0.502,16.348441051,75.477296496
0.503,16.198213231,75.95779821
0.504,16.050495426,76.443300484
0.505,15.905329919,76.933371488
0.506,15.76262625,77.427604786
0.507,15.622341556,77.925617758
0.508,15.484394748,78.427053503
0.509,15.348748345,78.931576154
0.51,15.215485156,79.438853912
0.511,15.084460314,79.948580906
0.512,14.955781753,80.460459394
0.513,14.829531516,80.974189002
0.514,14.705750641,81.489474468
0.515,14.584357825,82.006042115
0.516,14.465645546,82.523600466
0.517,14.349823095,83.041838105
0.518,14.237007132,83.560435763
0.519,14.127176728,84.079088106
0.52,14.020783612,84.597453193
0.521,13.917882351,85.11518328
0.522,13.818622037,85.631924905
0.523,13.723046976,86.147328225
0.524,13.631046726,86.661065817
0.525,13.542487709,87.172839371
0.526,13.457231424,87.682378429
0.527,13.375063389,88.189447985
0.528,13.295808996,88.69384746
0.529,13.21937591,89.19539605
0.53,13.145733156,89.693926761
0.531,13.07487019,90.189277719
0.532,13.006755619,90.681296259
0.533,12.941351732,91.169839999
0.534,12.878683985,91.654768918
0.535,12.818770631,92.135944649
0.536,12.761634395,92.61322932
0.537,12.70723929,93.086491922
0.538,12.65556557,93.555608625
0.539,12.606584082,94.02046204
0.54,12.560265155,94.480941872
0.541,12.516580755,94.936944125
0.542,12.475492838,95.388371853
0.543,12.436954265,95.835136164
0.544,12.400913166,96.277156649
0.545,12.367315948,96.71436135
0.546,12.336108243,97.146686537
0.547,12.307235113,97.574076454
0.548,12.280640794,97.9964831
0.549,12.256268332,98.413866065
0.55,12.234059358,98.826192408
0.551,12.213954239,99.23343654
0.552,12.195891989,99.635580109
0.553,12.179810098,100.03261191
0.554,12.165644494,100.42452783
0.555,12.153329327,100.81133079
0.556,12.142797011,101.19303071
0.557,12.13397819,101.5696445
0.558,12.126801833,101.94119599
0.559,12.121195524,102.30771591
0.56,12.117086025,102.66924175
0.561,12.114400059,103.02581752
0.562,12.113065189,103.3774935
0.563,12.113010642,103.72432574
0.564,12.11416796,104.06637565
0.565,12.116471566,104.40370939
0.566,12.119859158,104.73639734
0.567,12.124272016,105.06451343
0.568,12.129655153,105.3881346
0.569,12.135957216,105.70734017
0.57,12.143130282,106.02221134
0.571,12.151129665,106.33283068
0.572,12.159913719,106.6392817
0.573,12.169443604,106.94164848
0.574,12.17968302,107.24001527
0.575,12.190597964,107.53446624
0.576,12.2021565,107.82508521
0.577,12.214328543,108.11195544
0.578,12.227085637,108.39515942
0.579,12.240400752,108.67477877
0.58,12.254248109,108.9508941
0.581,12.268603052,109.22358493
0.582,12.283441948,109.4929296
0.583,12.298742116,109.75900525
0.584,12.314481782,110.02188771
0.585,12.330640042,110.28165153
0.586,12.347196842,110.53836988
0.587,12.364132964,110.79211454
0.588,12.381430018,111.0429559
0.589,12.399070434,111.29096285
0.59,12.417037458,111.53620286
0.591,12.435315136,111.77874186
0.592,12.453888301,112.01864428
0.593,12.472742548,112.25597299
0.594,12.491864208,112.49078932
0.595,12.511240313,112.72315304
0.596,12.530858564,112.95312235
0.597,12.55070729,113.18075386
0.598,12.570775416,113.40610264
0.599,12.591052428,113.6292222
0.6,12.611528341,113.8501645
0.601,12.632193669,114.06897998
0.602,12.653039403,114.28571756
0.603,12.674056986,114.50042469
0.604,12.695238291,114.71314732
0.605,12.716575601,114.92392999
0.606,12.73806159,115.13281581
0.607,12.759689305,115.33984647
0.608,12.781452139,115.54506233
0.609,12.80334382,115.74850239
0.61,12.825358383,115.95020435
0.611,12.847490152,116.15020463
0.612,12.869733722,116.34853842
0.613,12.892083936,116.54523966
0.614,12.914535869,116.74034116
0.615,12.937084811,116.93387455
0.616,12.959726251,117.12587037
0.617,12.982455863,117.31635807
0.618,13.005269494,117.50536608
0.619,13.028163153,117.69292181
0.62,13.051133001,117.8790517
0.621,13.074175343,118.06378127
0.622,13.097286619,118.24713512
0.623,13.1204634,118.42913698
0.624,13.143702376,118.60980974
0.625,13.167000359,118.78917549
0.626,13.190354266,118.96725554
0.627,13.213761124,119.14407044
0.628,13.237218057,119.31964002
0.629,13.260722285,119.49398343
0.63,13.284271119,119.66711915
